0.104,0.16,1.8571,0.064,0.104,1.6,0.032,0.048,2,0,0.016,0,0,0.016,0,0,0.016,0,0.1232,0.3728
0.104,0.16,1.8571,0.064,0.104,1.6,0.024,0.04,1.5,0,0.016,0,0,0.016,0,0,0.016,0,0.1248,0.3936
0.072,0.112,1.8,0,0.04,0,0,0.04,0,0,0.04,0,0,0.04,0,0,0.04,0,0.1264,0.4032
0.096,0.152,1.7143,0.056,0.096,1.4,0.024,0.04,1.5,0,0.016,0,0,0.016,0,0,0.016,0,0.1264,0.3856
0,-0.32,-0,0,-0.32,-0,0,-0.32,-0,0,-0.32,-0,0,-0.32,-0,0,-0.32,-0,-0.328,0.7904
0.096,0.152,1.7143,0.056,0.096,1.4,0.016,0.024,2,0,0.008,0,0,0.008,0,0,0.008,0,0.1248,0.4176
0.056,0.096,1.4,0,0.04,0,0,0.04,0,0,0.04,0,0,0.04,0,0,0.04,0,0.1248,0.4384
0,0.168,0,0,0.168,0,0,0.168,0,0,0.168,0,0,0.168,0,0,0.168,0,0.1056,0.328
0,-0.072,-0,0,-0.072,-0,0,-0.072,-0,0,-0.072,-0,0,-0.072,-0,0,-0.072,-0,0.1008,0.3376
0,0.224,0,0,0.224,0,0,0.224,0,0,0.224,0,0,0.224,0,0,0.224,0,0.0944,0.2176
0.04,0.04,Inf,0,0,NaN,0,0,NaN,0,0,NaN,0,0,NaN,0,0,NaN,0.1072,0.1744
0.088,0.112,3.6667,0.048,0.072,2,0,0.024,0,0,0.024,0,0,0.024,0,0,0.024,0,-0.3904,0.912
0.064,0.104,1.6,0,0.04,0,0,0.04,0,0,0.04,0,0,0.04,0,0,0.04,0,0.1248,0.3632
0.224,0.296,3.1111,0.104,0.16,1.8571,0.08,0.12,2,0,0.04,0,0,0.04,0,0,0.04,0,0.1264,0.416
0.112,0.168,2,0.056,0.088,1.75,0.024,0.032,3,0,0.008,0,0,0.008,0,0,0.008,0,0.1248,0.416
0,-0.192,-0,0,-0.192,-0,0,-0.192,-0,0,-0.192,-0,0,-0.192,-0,0,-0.192,-0,0.0928,0.264
0.096,0.16,1.5,0.064,0.104,1.6,0.024,0.04,1.5,0,0.016,0,0,0.016,0,0,0.016,0,0.1376,0.4288
0.248,0.336,2.8182,0.136,0.2,2.125,0.088,0.144,1.5714,0,0.056,0,0,0.056,0,0,0.056,0,0.1296,0.3344
0.096,0.168,1.3333,0.04,0.072,1.25,0,0.032,0,0,0.032,0,0,0.032,0,0,0.032,0,0.1456,0.3808
0.104,0.184,1.3,0.056,0.096,1.4,0,0.04,0,0,0.04,0,0,0.04,0,0,0.04,0,0.1808,0.4864
0.104,0.184,1.3,0.056,0.096,1.4,0,0.04,0,0,0.04,0,0,0.04,0,0,0.04,0,0.1808,0.4864
0.096,-0.488,-0.16438,0.048,-0.536,-0.082192,0,-0.584,-0,0,-0.584,-0,0,-0.584,-0,0,-0.584,-0,-0.3968,0.9184
0.08,0.136,1.4286,0.032,0.048,2,0,0.016,0,0,0.016,0,0,0.016,0,0,0.016,0,0.152,0.488
0.104,0.168,1.625,0.064,0.104,1.6,0.024,0.04,1.5,0,0.016,0,0,0.016,0,0,0.016,0,0.16,0.4864
0.112,0.192,1.4,0.072,0.128,1.2857,0.04,0.072,1.25,0,0.032,0,0,0.032,0,0,0.032,0,0.1568,0.4864
0.08,-0.392,-0.16949,0.024,-0.448,-0.050847,0,-0.472,-0,0,-0.472,-0,0,-0.472,-0,0,-0.472,-0,-0.4848,1.0944
0.088,0.144,1.5714,0.04,0.064,1.6667,0,0.024,0,0,0.024,0,0,0.024,0,0,0.024,0,0.1488,0.4848
0.096,0.168,1.3333,0.056,0.096,1.4,0.016,0.032,1,0,0.016,0,0,0.016,0,0,0.016,0,0.1456,0.4192
0.072,0.12,1.5,0,0.048,0,0,0.048,0,0,0.048,0,0,0.048,0,0,0.048,0,0.1248,0.384
0.096,0.152,1.7143,0.056,0.088,1.75,0,0.032,0,0,0.032,0,0,0.032,0,0,0.032,0,0.1472,0.4864
0.096,0.16,1.5,0.056,0.096,1.4,0.008,0.008,Inf,0,0,NaN,0,0,NaN,0,0,NaN,0.1472,0.4912
0.088,0.144,1.5714,0.032,0.048,2,0,0.016,0,0,0.016,0,0,0.016,0,0,0.016,0,0.1552,0.4848
0.08,0.136,1.4286,0.032,0.048,2,0,0.016,0,0,0.016,0,0,0.016,0,0,0.016,0,0.1536,0.4704
0.072,-0.184,-0.28125,0.024,-0.232,-0.09375,0,-0.256,-0,0,-0.256,-0,0,-0.256,-0,0,-0.256,-0,-0.4864,1.1264
0.088,-0.12,-0.42308,0.048,-0.16,-0.23077,0,-0.208,-0,0,-0.208,-0,0,-0.208,-0,0,-0.208,-0,-0.4848,1.1184
0.088,0.152,1.375,0.048,0.088,1.2,0,0.04,0,0,0.04,0,0,0.04,0,0,0.04,0,0.1504,0.488
0.064,0.112,1.3333,0,0.048,0,0,0.048,0,0,0.048,0,0,0.048,0,0,0.048,0,0.1536,0.4848
0.088,0.144,1.5714,0.048,0.08,1.5,0,0.032,0,0,0.032,0,0,0.032,0,0,0.032,0,0.1456,0.4816
0.08,0.128,1.6667,0.032,0.056,1.3333,0,0.024,0,0,0.024,0,0,0.024,0,0,0.024,0,0.1472,0.4896
0.08,0.136,1.4286,0.04,0.072,1.25,0,0.032,0,0,0.032,0,0,0.032,0,0,0.032,0,0.1504,0.4528
0.056,0.088,1.75,0,0.032,0,0,0.032,0,0,0.032,0,0,0.032,0,0,0.032,0,0.1264,0.3824
0.072,0.12,1.5,0,0.048,0,0,0.048,0,0,0.048,0,0,0.048,0,0,0.048,0,0.1536,0.4976
0.048,-0.312,-0.13333,0,-0.36,-0,0,-0.36,-0,0,-0.36,-0,0,-0.36,-0,0,-0.36,-0,-0.4848,1.1168
0.072,-0.28,-0.20455,0,-0.352,-0,0,-0.352,-0,0,-0.352,-0,0,-0.352,-0,0,-0.352,-0,-0.4928,1.1376
0.064,0.112,1.3333,0,0.048,0,0,0.048,0,0,0.048,0,0,0.048,0,0,0.048,0,0.1504,0.4864
0.104,0.168,1.625,0.064,0.112,1.3333,0.04,0.072,1.25,0,0.032,0,0,0.032,0,0,0.032,0,0.1504,0.4848
0.056,0.104,1.1667,0,0.048,0,0,0.048,0,0,0.048,0,0,0.048,0,0,0.048,0,0.1264,0.3888
0.12,-0.152,-0.44118,0.064,-0.208,-0.23529,0,-0.272,-0,0,-0.272,-0,0,-0.272,-0,0,-0.272,-0,-0.52,1.2128
0.112,0.184,1.5556,0.056,0.096,1.4,0,0.04,0,0,0.04,0,0,0.04,0,0,0.04,0,0.1552,0.5184
0,0.44,0,0,0.44,0,0,0.44,0,0,0.44,0,0,0.44,0,0,0.44,0,0.136,0.3968
0.128,0.208,1.6,0.072,0.128,1.2857,0.04,0.064,1.6667,0,0.024,0,0,0.024,0,0,0.024,0,0.1392,0.392
0.064,0.104,1.6,0,0.04,0,0,0.04,0,0,0.04,0,0,0.04,0,0,0.04,0,0.1264,0.4176
0.096,-0.104,-0.48,0.056,-0.144,-0.28,0.016,-0.184,-0.08,0,-0.2,-0,0,-0.2,-0,0,-0.2,-0,-0.2176,0.5488
0.072,-0.184,-0.28125,0,-0.256,-0,0,-0.256,-0,0,-0.256,-0,0,-0.256,-0,0,-0.256,-0,-0.4992,1.1792
0,-0.128,-0,0,-0.128,-0,0,-0.128,-0,0,-0.128,-0,0,-0.128,-0,0,-0.128,-0,0.0912,0.2352
0.168,0.256,1.9091,0.08,0.144,1.25,0.048,0.088,1.2,0,0.04,0,0,0.04,0,0,0.04,0,0.1712,0.5072
0,0,NaN,0,0,NaN,0,0,NaN,0,0,NaN,0,0,NaN,0,0,NaN,-0.5168,1.192
0.048,0.08,1.5,0,0.032,0,0,0.032,0,0,0.032,0,0,0.032,0,0,0.032,0,0.1328,0.4112
0,0.28,0,0,0.28,0,0,0.28,0,0,0.28,0,0,0.28,0,0,0.28,0,0.1056,0.2896
0.16,0.24,2,0.088,0.136,1.8333,0.056,0.08,2.3333,0,0.024,0,0,0.024,0,0,0.024,0,0.1664,0.5248
0.104,-0.032,-0.76471,0.056,-0.08,-0.41176,0,-0.136,-0,0,-0.136,-0,0,-0.136,-0,0,-0.136,-0,-0.4928,1.1632
0,-0.12,-0,0,-0.12,-0,0,-0.12,-0,0,-0.12,-0,0,-0.12,-0,0,-0.12,-0,-0.3952,0.9264
0,0.024,0,0,0.024,0,0,0.024,0,0,0.024,0,0,0.024,0,0,0.024,0,0.1664,0.432
0.112,0.176,1.75,0.056,0.096,1.4,0.016,0.032,1,0,0.016,0,0,0.016,0,0,0.016,0,0.1536,0.6096
0.064,-0.32,-0.16667,0,-0.384,-0,0,-0.384,-0,0,-0.384,-0,0,-0.384,-0,0,-0.384,-0,-0.5248,1.2048
0.232,-0.152,-0.60417,0.12,-0.264,-0.3125,0.064,-0.32,-0.16667,0,-0.384,-0,0,-0.384,-0,0,-0.384,-0,-0.3696,0.9104
-0.032,-0.384,0.090909,-0.032,-0.384,0.090909,0.288,-0.064,-0.81818,0.16,-0.192,-0.45455,0.064,-0.288,-0.18182,0,-0.352,-0,-0.2944,0.7808
0.064,0.112,1.3333,0.016,0.016,Inf,0,0,NaN,0,0,NaN,0,0,NaN,0,0,NaN,0.1552,0.3792
0.072,0.12,1.5,0.032,0.048,2,0,0.016,0,0,0.016,0,0,0.016,0,0,0.016,0,0.1488,0.3888
0.096,-0.12,-0.44444,0.048,-0.168,-0.22222,0.024,-0.192,-0.11111,0,-0.216,-0,0,-0.216,-0,0,-0.216,-0,-0.3936,0.9296
0.08,0.136,1.4286,0.04,0.064,1.6667,0,0.024,0,0,0.024,0,0,0.024,0,0,0.024,0,0.1488,0.3904
0.072,0.136,1.125,0.032,0.056,1.3333,0,0.024,0,0,0.024,0,0,0.024,0,0,0.024,0,0.1488,0.3872
0.112,0.168,2,0.024,0.032,3,0,0.008,0,0,0.008,0,0,0.008,0,0,0.008,0,0.1056,0.3152
0.064,0.112,1.3333,0.024,0.032,3,0,0.008,0,0,0.008,0,0,0.008,0,0,0.008,0,0.144,0.3904
0.08,0.136,1.4286,0.04,0.064,1.6667,0,0.024,0,0,0.024,0,0,0.024,0,0,0.024,0,0.1456,0.3968
0.064,0.112,1.3333,0.016,0.024,2,0,0.008,0,0,0.008,0,0,0.008,0,0,0.008,0,0.1424,0.4
0.08,0.136,1.4286,0.032,0.056,1.3333,0,0.024,0,0,0.024,0,0,0.024,0,0,0.024,0,0.144,0.3984
0.072,0.12,1.5,0.032,0.056,1.3333,0,0.024,0,0,0.024,0,0,0.024,0,0,0.024,0,0.1472,0.3936
0.08,0.136,1.4286,0.04,0.072,1.25,0,0.032,0,0,0.032,0,0,0.032,0,0,0.032,0,0.1456,0.3952
0.104,0.064,-2.6,0.056,0.016,-1.4,0.032,-0.008,-0.8,0,-0.04,-0,0,-0.04,-0,0,-0.04,-0,-0.4016,0.9456
0.08,0.128,1.6667,0.016,0.024,2,0,0.008,0,0,0.008,0,0,0.008,0,0,0.008,0,0.1456,0.408
0.048,0.08,1.5,0,0.032,0,0,0.032,0,0,0.032,0,0,0.032,0,0,0.032,0,0.152,0.4688
0.048,0.08,1.5,0,0.032,0,0,0.032,0,0,0.032,0,0,0.032,0,0,0.032,0,0.152,0.4688
0.144,0.224,1.8,0.088,0.144,1.5714,0.064,0.104,1.6,0,0.04,0,0,0.04,0,0,0.04,0,0.1584,0.5024
0.096,0.184,1.0909,0.048,0.096,1,0,0.048,0,0,0.048,0,0,0.048,0,0,0.048,0,0.1904,0.5248
0.12,0.224,1.1538,0.056,0.112,1,0,0.056,0,0,0.056,0,0,0.056,0,0,0.056,0,0.248,0.4816
0.144,-0.2,-0.4186,0.088,-0.256,-0.25581,0,-0.344,-0,0,-0.344,-0,0,-0.344,-0,0,-0.344,-0,-0.5408,1.3328
0.104,0.208,1,0,0.104,0,0,0.104,0,0,0.104,0,0,0.104,0,0,0.104,0,0.2432,0.544
0.2,-0.392,-0.33784,0.112,-0.48,-0.18919,0.08,-0.512,-0.13514,0,-0.592,-0,0,-0.592,-0,0,-0.592,-0,-0.4208,1.0304
0,-0.64,-0,0,-0.64,-0,0,-0.64,-0,0,-0.64,-0,0,-0.64,-0,0,-0.64,-0,-0.224,0.5856
0,-0.52,-0,0,-0.52,-0,0,-0.52,-0,0,-0.52,-0,0,-0.52,-0,0,-0.52,-0,0.0816,0.1392
0.112,0.176,1.75,0.04,0.056,2.5,0,0.016,0,0,0.016,0,0,0.016,0,0,0.016,0,0.1056,0.3056
0,-0.048,-0,0,-0.048,-0,0,-0.048,-0,0,-0.048,-0,0,-0.048,-0,0,-0.048,-0,0.1488,0.3888
0.104,-0.264,-0.28261,0.04,-0.328,-0.1087,0,-0.368,-0,0,-0.368,-0,0,-0.368,-0,0,-0.368,-0,-0.5952,1.3728
0.096,0.16,1.5,0.032,0.048,2,0,0.016,0,0,0.016,0,0,0.016,0,0,0.016,0,0.1824,0.5952
0.128,-0.44,-0.22535,0.08,-0.488,-0.14085,0,-0.568,-0,0,-0.568,-0,0,-0.568,-0,0,-0.568,-0,-0.3808,0.8864
0.144,0.24,1.5,0.056,0.112,1,0,0.056,0,0,0.056,0,0,0.056,0,0,0.056,0,0.2288,0.6016
0.064,0.12,1.1429,0,0.056,0,0,0.056,0,0,0.056,0,0,0.056,0,0,0.056,0,0.2256,0.6064
0.072,0.128,1.2857,0,0.056,0,0,0.056,0,0,0.056,0,0,0.056,0,0,0.056,0,0.2272,0.5968
0.12,-0.48,-0.2,0.04,-0.56,-0.066667,0,-0.6,-0,0,-0.6,-0,0,-0.6,-0,0,-0.6,-0,-0.5936,1.4128
0.224,0.32,2.3333,0.12,0.192,1.6667,0.088,0.144,1.5714,0,0.056,0,0,0.056,0,0,0.056,0,0.1568,0.4144
0.184,0.28,1.9167,0.104,0.176,1.4444,0.064,0.112,1.3333,0,0.048,0,0,0.048,0,0,0.048,0,0.1728,0.4016
0.088,-0.144,-0.37931,0.024,-0.208,-0.10345,0,-0.232,-0,0,-0.232,-0,0,-0.232,-0,0,-0.232,-0,-0.2704,0.68
0.104,-0.12,-0.46429,0.056,-0.168,-0.25,0.024,-0.2,-0.10714,0,-0.224,-0,0,-0.224,-0,0,-0.224,-0,-0.5328,1.1616
0.08,0.12,2,0,0.04,0,0,0.04,0,0,0.04,0,0,0.04,0,0,0.04,0,0.1008,0.2656
0.088,-0.256,-0.25581,0.04,-0.304,-0.11628,0,-0.344,-0,0,-0.344,-0,0,-0.344,-0,0,-0.344,-0,-0.4848,1.0928
0.104,0.16,1.8571,0.064,0.096,2,0.032,0.048,2,0,0.016,0,0,0.016,0,0,0.016,0,0.1312,0.4288
0,0.096,0,0,0.096,0,0,0.096,0,0,0.096,0,0,0.096,0,0,0.096,0,0.1216,0.432
0.096,0,-1,0.048,-0.048,-0.5,0,-0.096,-0,0,-0.096,-0,0,-0.096,-0,0,-0.096,-0,-0.4096,0.976
0.08,0.064,-5,0.032,0.016,-2,0,-0.016,-0,0,-0.016,-0,0,-0.016,-0,0,-0.016,-0,-0.4256,0.9584
0,-0.072,-0,0,-0.072,-0,0,-0.072,-0,0,-0.072,-0,0,-0.072,-0,0,-0.072,-0,0.0864,0.2576
0.776,0.696,-9.7,0.032,-0.048,-0.4,0,-0.08,-0,0,-0.08,-0,0,-0.08,-0,0,-0.08,-0,-0.3408,0.7168
0.2,0.16,-5,0.104,0.064,-2.6,0.064,0.024,-1.6,0,-0.04,-0,0,-0.04,-0,0,-0.04,-0,-0.216,0.5664
0.192,0.256,3,0.112,0.16,2.3333,0.08,0.112,2.5,0,0.032,0,0,0.032,0,0,0.032,0,0.1056,0.3936
0.088,-0.112,-0.44,0.032,-0.168,-0.16,0,-0.2,-0,0,-0.2,-0,0,-0.2,-0,0,-0.2,-0,-0.4512,1.0224
0.16,0.248,1.8182,0.112,0.176,1.75,0.088,0.136,1.8333,0,0.048,0,0,0.048,0,0,0.048,0,0.1456,0.3648
0,0.464,0,0,0.464,0,0,0.464,0,0,0.464,0,0,0.464,0,0,0.464,0,0.176,0.3808
0.136,0.2,2.125,0.08,0.12,2,0.056,0.088,1.75,0,0.032,0,0,0.032,0,0,0.032,0,0.1056,0.2384
0.112,0.064,-2.3333,0.064,0.016,-1.3333,0.032,-0.016,-0.66667,0,-0.048,-0,0,-0.048,-0,0,-0.048,-0,-0.4096,0.9616
0.08,0.112,2.5,0.024,0.056,0.75,0,0.032,0,0,0.032,0,0,0.032,0,0,0.032,0,-0.3936,0.9312
0.08,0.136,1.4286,0.04,0.064,1.6667,0,0.024,0,0,0.024,0,0,0.024,0,0,0.024,0,0.136,0.4048
0.184,0.256,2.5556,0.072,0.12,1.5,0.04,0.072,1.25,0,0.032,0,0,0.032,0,0,0.032,0,0.0992,0.2528
0.168,0.288,1.4,0.08,0.168,0.90909,0.04,0.088,0.83333,0,0.048,0,0,0.048,0,0,0.048,0,0.208,0.5152
0.48,0.064,-1.1538,0.208,-0.208,-0.5,0.112,-0.304,-0.26923,0.064,-0.352,-0.15385,0,-0.416,-0,0,-0.416,-0,-0.3808,0.8448
0,-0.264,-0,0,-0.264,-0,0,-0.264,-0,0,-0.264,-0,0,-0.264,-0,0,-0.264,-0,0.104,0.256
0.48,0.032,-1.0714,0,-0.448,-0,0,-0.448,-0,0,-0.448,-0,0,-0.448,-0,0,-0.448,-0,-0.2512,0.7584
0.104,-0.36,-0.22414,0.064,-0.4,-0.13793,0.048,-0.416,-0.10345,0,-0.464,-0,0,-0.464,-0,0,-0.464,-0,-0.2464,0.6272
0.152,-0.36,-0.29688,0.104,-0.408,-0.20312,0,-0.512,-0,0,-0.512,-0,0,-0.512,-0,0,-0.512,-0,-0.3472,0.7472
0.12,0.176,2.1429,0.056,0.08,2.3333,0,0.024,0,0,0.024,0,0,0.024,0,0,0.024,0,0.2112,0.3408
0.144,-0.352,-0.29032,0.072,-0.424,-0.14516,0,-0.496,-0,0,-0.496,-0,0,-0.496,-0,0,-0.496,-0,-0.3488,0.9232
0.04,-0.392,-0.092593,0,-0.432,-0,0,-0.432,-0,0,-0.432,-0,0,-0.432,-0,0,-0.432,-0,-0.1808,0.4288
0.128,-0.208,-0.38095,0,-0.336,-0,0,-0.336,-0,0,-0.336,-0,0,-0.336,-0,0,-0.336,-0,-0.3344,0.6832
0,-0.464,-0,0,-0.464,-0,0,-0.464,-0,0,-0.464,-0,0,-0.464,-0,0,-0.464,-0,0.096,0.2224
0.104,-0.384,-0.21311,0.056,-0.432,-0.11475,0.024,-0.464,-0.04918,0,-0.488,-0,0,-0.488,-0,0,-0.488,-0,-0.4192,0.9968
0.024,0.08,0.42857,0.024,0.056,0.75,0.024,0.04,1.5,0,0.016,0,0,0.016,0,0,0.016,0,0.0528,0.104
-0.224,-0.016,-1.0769,-0.224,-0.064,-1.4,0.304,0.432,2.375,0.088,0.16,1.2222,0,0.072,0,0,0.072,0,0.1872,0.4336
0.232,-0.064,-0.78378,0.088,-0.208,-0.2973,0.016,-0.28,-0.054054,0,-0.296,-0,0,-0.296,-0,0,-0.296,-0,-0.4384,1.0576
0.152,0.216,2.375,0.072,0.088,4.5,0,0.016,0,0,0.016,0,0,0.016,0,0,0.016,0,0.184,0.4064
0.216,-0.224,-0.49091,0.096,-0.344,-0.21818,0.056,-0.384,-0.12727,0,-0.44,-0,0,-0.44,-0,0,-0.44,-0,-0.368,0.8976
0.08,0.16,1,0.016,0.016,Inf,0,0,NaN,0,0,NaN,0,0,NaN,0,0,NaN,0.216,0.4608
0.096,-0.448,-0.17647,0,-0.544,-0,0,-0.544,-0,0,-0.544,-0,0,-0.544,-0,0,-0.544,-0,-0.3936,0.8784
0.16,0.28,1.3333,0.088,0.176,1,0.056,0.12,0.875,0,0.064,0,0,0.064,0,0,0.064,0,0.2064,0.4704
0,0.072,0,0,0.072,0,0,0.072,0,0,0.072,0,0,0.072,0,0,0.072,0,0.0768,0.096
0.16,0.072,-1.8182,0.328,0.24,-3.7273,0.248,0.16,-2.8182,0.08,-0.008,-0.90909,0,-0.088,-0,0,-0.088,-0,-0.3952,0.96
0.192,0.064,-1.5,0.12,-0.008,-0.9375,0.088,-0.04,-0.6875,0.016,-0.112,-0.125,0,-0.128,-0,0,-0.128,-0,-0.2048,0.5168
0,-0.016,-0,0,-0.016,-0,0,-0.016,-0,0,-0.016,-0,0,-0.016,-0,0,-0.016,-0,0.0928,0.1616
0.024,0.04,1.5,0,0.016,0,0,0.016,0,0,0.016,0,0,0.016,0,0,0.016,0,0.1216,0.1952
0,-0.152,-0,0,-0.152,-0,0,-0.152,-0,0,-0.152,-0,0,-0.152,-0,0,-0.152,-0,0.1056,0.1696
0.072,-0.152,-0.32143,0,-0.224,-0,0,-0.224,-0,0,-0.224,-0,0,-0.224,-0,0,-0.224,-0,-0.1824,0.4592
-0.16,-0.032,-1.25,0.04,0.168,0.3125,0.024,0.136,0.21429,0.016,0.08,0.25,0,0.064,0,0,0.064,0,0.1344,0.36
0,0.128,0,0.04,0.168,0.3125,0.024,0.136,0.21429,0.016,0.08,0.25,0,0.064,0,0,0.064,0,0.1344,0.36
0.08,0.16,1,0.032,0.072,0.8,0,0.04,0,0,0.04,0,0,0.04,0,0,0.04,0,0.1488,0.3376
0.112,0.184,1.5556,0.04,0.08,1,0,0.04,0,0,0.04,0,0,0.04,0,0,0.04,0,0.1728,0.4352
0.128,-0.08,-0.61538,0.072,-0.136,-0.34615,0.04,-0.168,-0.19231,0,-0.208,-0,0,-0.208,-0,0,-0.208,-0,-0.3312,0.6768
0.152,0.256,1.4615,0.112,0.184,1.5556,0.08,0.128,1.6667,0,0.048,0,0,0.048,0,0,0.048,0,0.1312,0.3632
0.192,0.048,-1.3333,0.192,0.048,-1.3333,0.168,0.024,-1.1667,0.056,-0.088,-0.38889,0,-0.144,-0,0,-0.144,-0,-0.3104,0.816
0.12,0.096,-5,0.072,0.048,-3,0.032,0.008,-1.3333,0,-0.024,-0,0,-0.024,-0,0,-0.024,-0,-0.1488,0.4368
0,0.192,0,0,0.192,0,0,0.192,0,0,0.192,0,0,0.192,0,0,0.192,0,0.1824,0.2368
0.128,0.184,2.2857,0.048,0.072,2,0,0.024,0,0,0.024,0,0,0.024,0,0,0.024,0,0.2432,0.2656
0.144,-0.464,-0.23684,0.064,-0.544,-0.10526,0,-0.608,-0,0,-0.608,-0,0,-0.608,-0,0,-0.608,-0,-0.1616,0.4944
0,-0.48,-0,0,-0.48,-0,0,-0.48,-0,0,-0.48,-0,0,-0.48,-0,0,-0.48,-0,0.0704,0.2288
0.344,-0.48,-0.41748,0.912,0.088,-1.1068,0.904,0.08,-1.0971,0.032,-0.792,-0.038835,0,-0.824,-0,0,-0.824,-0,-0.328,0.7504
0,-0.608,-0,0,-0.608,-0,0,-0.608,-0,0,-0.608,-0,0,-0.608,-0,0,-0.608,-0,0.0912,0.1216
0.04,0.048,5,0.008,0.008,Inf,0,0,NaN,0,0,NaN,0,0,NaN,0,0,NaN,0.224,0.2736
0,0.136,0,0,0.136,0,0,0.136,0,0,0.136,0,0,0.136,0,0,0.136,0,0.1232,0.1488
0.008,0.024,0.5,0.008,0.024,0.5,0.008,0.024,0.5,0,0.016,0,0,0.016,0,0,0.016,0,0.1536,0.3008
0.176,0.328,1.1579,0.136,0.288,0.89474,0.104,0.256,0.68421,0,0.152,0,0,0.152,0,0,0.152,0,-0.3296,0.7104
0,0.064,0,0,0.064,0,0,0.064,0,0,0.064,0,0,0.064,0,0,0.064,0,0.1424,0.3424
0.16,0.064,-1.6667,0,-0.096,-0,0,-0.096,-0,0,-0.096,-0,0,-0.096,-0,0,-0.096,-0,-0.2848,0.8128
-0.16,-0.008,-1.0526,-0.16,-0.008,-1.0526,-0.16,-0.008,-1.0526,-0.16,-0.008,-1.0526,-0.16,-0.04,-1.3333,0.08,0.112,2.5,0.1248,0.2848
0.168,0.272,1.6154,0.096,0.2,0.92308,0,0.104,0,0,0.104,0,0,0.104,0,0,0.104,0,-0.4192,1.0416
0,-0.2,-0,0,-0.2,-0,0,-0.2,-0,0,-0.2,-0,0,-0.2,-0,0,-0.2,-0,-0.2736,0.6384
0.16,0.136,-6.6667,0.088,0.064,-3.6667,0.032,0.008,-1.3333,0,-0.024,-0,0,-0.024,-0,0,-0.024,-0,-0.2496,0.6496
0,0.232,0,0,0.232,0,0,0.232,0,0,0.232,0,0,0.232,0,0,0.232,0,0.2848,0.272
0.176,0.176,Inf,0.104,0.104,Inf,0,0,NaN,0,0,NaN,0,0,NaN,0,0,NaN,-0.4208,0.9616
0,0.248,0,0,0.248,0,0,0.248,0,0,0.248,0,0,0.248,0,0,0.248,0,0.24,0.3552
0.136,0.288,0.89474,0.096,0.248,0.63158,0.032,0.184,0.21053,0,0.152,0,0,0.152,0,0,0.152,0,-0.2096,0.608
0,0.104,0,0,0.104,0,0,0.104,0,0,0.104,0,0,0.104,0,0,0.104,0,0.0688,0.1376
0.088,0.04,-1.8333,0.048,0,-1,0,-0.048,-0,0,-0.048,-0,0,-0.048,-0,0,-0.048,-0,-0.1552,0.4672
0,-0.008,-0,0,-0.008,-0,0,-0.008,-0,0,-0.008,-0,0,-0.008,-0,0,-0.008,-0,0.1392,0.3168
0.312,0.24,-4.3333,0.168,0.096,-2.3333,0.128,0.056,-1.7778,0,-0.072,-0,0,-0.072,-0,0,-0.072,-0,-0.4624,1.112
0.08,0.16,1,0,0.08,0,0,0.08,0,0,0.08,0,0,0.08,0,0,0.08,0,0.136,0.312
0.224,0.352,1.75,0.12,0.224,1.1538,0.088,0.176,1,0,0.088,0,0,0.088,0,0,0.088,0,0.2064,0.4464
0.264,0.088,-1.5,0.08,-0.096,-0.45455,0,-0.176,-0,0,-0.176,-0,0,-0.176,-0,0,-0.176,-0,-0.176,0.44
0.272,0.136,-2,0.104,-0.032,-0.76471,0.08,-0.056,-0.58824,0.024,-0.112,-0.17647,0,-0.136,-0,0,-0.136,-0,-0.288,0.6432
0.072,0.112,1.8,0.032,0.048,2,0,0.016,0,0,0.016,0,0,0.016,0,0,0.016,0,0.112,0.3024
0.048,0.096,1,0,0.048,0,0,0.048,0,0,0.048,0,0,0.048,0,0,0.048,0,0.16,0.3984
0.176,0.312,1.2941,0,0.136,0,0,0.136,0,0,0.136,0,0,0.136,0,0,0.136,0,0.136,0.4448
-0.072,0.064,-0.52941,0.12,0.232,1.0714,0.104,0.184,1.3,0,0.08,0,0,0.08,0,0,0.08,0,0.1152,0.288
0.104,0.168,1.625,0.056,0.096,1.4,0.024,0.04,1.5,0,0.016,0,0,0.016,0,0,0.016,0,0.0992,0.2192
0.184,0.264,2.3,0.104,0.16,1.8571,0.072,0.104,2.25,0,0.032,0,0,0.032,0,0,0.032,0,0.1152,0.4352
0,0.384,0,0,0.384,0,0,0.384,0,0,0.384,0,0,0.384,0,0,0.384,0,0.1264,0.4528
0,0.336,0,0,0.336,0,0,0.336,0,0,0.336,0,0,0.336,0,0,0.336,0,0.2224,0.6752
0.376,0.32,-6.7143,0.168,0.112,-3,0.112,0.056,-2,0.048,-0.008,-0.85714,0,-0.056,-0,0,-0.056,-0,-0.4688,1.2016
0.088,0.144,1.5714,0,0.056,0,0,0.056,0,0,0.056,0,0,0.056,0,0,0.056,0,0.1104,0.4816
0,-0.2,-0,0,-0.2,-0,0,-0.2,-0,0,-0.2,-0,0,-0.2,-0,0,-0.2,-0,0.1232,0.4464
0.096,-0.544,-0.15,0.04,-0.6,-0.0625,0,-0.64,-0,0,-0.64,-0,0,-0.64,-0,0,-0.64,-0,-0.3152,0.7168
0.104,-0.552,-0.15854,0.048,-0.608,-0.073171,0,-0.656,-0,0,-0.656,-0,0,-0.656,-0,0,-0.656,-0,-0.4688,0.8896
0,-0.616,-0,0,-0.616,-0,0,-0.616,-0,0,-0.616,-0,0,-0.616,-0,0,-0.616,-0,0.12,0.4576
0.12,-0.496,-0.19481,0.056,-0.56,-0.090909,0.016,-0.6,-0.025974,0,-0.616,-0,0,-0.616,-0,0,-0.616,-0,-0.5472,1.2384
0.096,0.152,1.7143,0.04,0.072,1.25,0,0.032,0,0,0.032,0,0,0.032,0,0,0.032,0,0.1648,0.6576
0.104,0.176,1.4444,0.04,0.072,1.25,0,0.032,0,0,0.032,0,0,0.032,0,0,0.032,0,0.1424,0.56
0.072,-0.32,-0.18367,0,-0.392,-0,0,-0.392,-0,0,-0.392,-0,0,-0.392,-0,0,-0.392,-0,-0.6544,1.504
0.088,0.152,1.375,0,0.064,0,0,0.064,0,0,0.064,0,0,0.064,0,0,0.064,0,0.16,0.4976
0,-0.32,-0,0,-0.32,-0,0,-0.32,-0,0,-0.32,-0,0,-0.32,-0,0,-0.32,-0,0.0928,0.3008
0,-0.296,-0,0,-0.296,-0,0,-0.296,-0,0,-0.296,-0,0,-0.296,-0,0,-0.296,-0,0.1248,0.3744
0.096,0.184,1.0909,0.048,0.088,1.2,0,0.04,0,0,0.04,0,0,0.04,0,0,0.04,0,0.1952,0.616
0.104,0.192,1.1818,0.048,0.104,0.85714,0,0.056,0,0,0.056,0,0,0.056,0,0,0.056,0,0.1264,0.3872
0.096,-0.032,-0.75,0.04,-0.088,-0.3125,0,-0.128,-0,0,-0.128,-0,0,-0.128,-0,0,-0.128,-0,-0.4624,0.9504
0,-0.2,-0,0,-0.2,-0,0,-0.2,-0,0,-0.2,-0,0,-0.2,-0,0,-0.2,-0,0.0784,0.2208
0.072,-0.048,-0.6,0,-0.12,-0,0,-0.12,-0,0,-0.12,-0,0,-0.12,-0,0,-0.12,-0,-0.3136,0.6624
0,0.072,0,0,0.072,0,0,0.072,0,0,0.072,0,0,0.072,0,0,0.072,0,0.0928,0.256
0,0.232,0,0,0.232,0,0,0.232,0,0,0.232,0,0,0.232,0,0,0.232,0,0.0944,0.2832
0.104,0.184,1.3,0.048,0.088,1.2,0,0.04,0,0,0.04,0,0,0.04,0,0,0.04,0,0.1312,0.4112
0,-0.08,-0,0,-0.08,-0,0,-0.08,-0,0,-0.08,-0,0,-0.08,-0,0,-0.08,-0,0.1264,0.4128
0.112,0.184,1.5556,0.04,0.064,1.6667,0,0.024,0,0,0.024,0,0,0.024,0,0,0.024,0,0.1936,0.6976
0.072,0.128,1.2857,0,0.056,0,0,0.056,0,0,0.056,0,0,0.056,0,0,0.056,0,0.1904,0.584
0.104,0.176,1.4444,0.048,0.088,1.2,0,0.04,0,0,0.04,0,0,0.04,0,0,0.04,0,0.1648,0.432
0.056,0.096,1.4,0,0.04,0,0,0.04,0,0,0.04,0,0,0.04,0,0,0.04,0,0.144,0.4272
0.096,0.168,1.3333,0.048,0.088,1.2,0,0.04,0,0,0.04,0,0,0.04,0,0,0.04,0,0.1968,0.5424
0.048,0.088,1.2,0,0.04,0,0,0.04,0,0,0.04,0,0,0.04,0,0,0.04,0,0.1712,0.3776
0.056,-0.344,-0.14,0,-0.4,-0,0,-0.4,-0,0,-0.4,-0,0,-0.4,-0,0,-0.4,-0,-0.5248,1.1056
0,-0.488,-0,0,-0.488,-0,0,-0.488,-0,0,-0.488,-0,0,-0.488,-0,0,-0.488,-0,0.0976,0.2816
0,-0.432,-0,0,-0.432,-0,0,-0.432,-0,0,-0.432,-0,0,-0.432,-0,0,-0.432,-0,0.1536,0.408
0,-0.44,-0,0,-0.44,-0,0,-0.44,-0,0,-0.44,-0,0,-0.44,-0,0,-0.44,-0,0.1104,0.3344
0.104,0.176,1.4444,0.056,0.096,1.4,0,0.04,0,0,0.04,0,0,0.04,0,0,0.04,0,0.088,0.2896
0,-0.072,-0,0,-0.072,-0,0,-0.072,-0,0,-0.072,-0,0,-0.072,-0,0,-0.072,-0,0.0864,0.296
0,-0.264,-0,0,-0.264,-0,0,-0.264,-0,0,-0.264,-0,0,-0.264,-0,0,-0.264,-0,0.2032,0.376
0.096,-0.448,-0.17647,0.056,-0.488,-0.10294,0.024,-0.52,-0.044118,0,-0.544,-0,0,-0.544,-0,0,-0.544,-0,-0.3792,0.7728
0,-0.44,-0,0,-0.44,-0,0,-0.44,-0,0,-0.44,-0,0,-0.44,-0,0,-0.44,-0,0.1424,0.2368
0.112,0.216,1.0769,0.072,0.144,1,0.024,0.032,3,0,0.008,0,0,0.008,0,0,0.008,0,0.1488,0.3792
0.12,-0.056,-0.68182,0.08,-0.096,-0.45455,0.016,-0.16,-0.090909,0,-0.176,-0,0,-0.176,-0,0,-0.176,-0,-0.2672,0.6272
0,-0.144,-0,0,-0.144,-0,0,-0.144,-0,0,-0.144,-0,0,-0.144,-0,0,-0.144,-0,-0.2288,0.7088
0.112,-0.08,-0.58333,0.072,-0.12,-0.375,0.024,-0.168,-0.125,0,-0.192,-0,0,-0.192,-0,0,-0.192,-0,-0.328,0.696
0.32,0.184,-2.3529,0.176,0.04,-1.2941,0.128,-0.008,-0.94118,0.032,-0.104,-0.23529,0,-0.136,-0,0,-0.136,-0,-0.2944,0.7408
0,0.08,0,0,0.08,0,0,0.08,0,0,0.08,0,0,0.08,0,0,0.08,0,0.1232,0.2224
0,-0.056,-0,0,-0.056,-0,0,-0.056,-0,0,-0.056,-0,0,-0.056,-0,0,-0.056,-0,0.0896,0.2176
0,-0.128,-0,0,-0.128,-0,0,-0.128,-0,0,-0.128,-0,0,-0.128,-0,0,-0.128,-0,-0.2656,0.8048
0.088,0.16,1.2222,0.016,0.024,2,0,0.008,0,0,0.008,0,0,0.008,0,0,0.008,0,0.1328,0.3376
0,0,NaN,0,0,NaN,0,0,NaN,0,0,NaN,0,0,NaN,0,0,NaN,0.1088,0.2112
0.104,0.2,1.0833,0.056,0.104,1.1667,0,0.048,0,0,0.048,0,0,0.048,0,0,0.048,0,0.1344,0.3696
0,-0.136,-0,0,-0.136,-0,0,-0.136,-0,0,-0.136,-0,0,-0.136,-0,0,-0.136,-0,-0.4496,1.0832
0.104,-0.064,-0.61905,0.064,-0.104,-0.38095,0,-0.168,-0,0,-0.168,-0,0,-0.168,-0,0,-0.168,-0,-0.3648,0.7664
0.088,0.176,1,0,0.088,0,0,0.088,0,0,0.088,0,0,0.088,0,0,0.088,0,0.1616,0.3808
0,0.128,0,0,0.128,0,0,0.128,0,0,0.128,0,0,0.128,0,0,0.128,0,0.16,0.3984
0.08,0.168,0.90909,0.04,0.08,1,0,0.04,0,0,0.04,0,0,0.04,0,0,0.04,0,0.1584,0.3408
0.08,0.04,-2,0,-0.04,-0,0,-0.04,-0,0,-0.04,-0,0,-0.04,-0,0,-0.04,-0,-0.4144,0.992
0.088,0.16,1.2222,0.032,0.056,1.3333,0,0.024,0,0,0.024,0,0,0.024,0,0,0.024,0,0.16,0.4928
0,0.176,0,0,0.176,0,0,0.176,0,0,0.176,0,0,0.176,0,0,0.176,0,0.144,0.3616
0.104,0.184,1.3,0.056,0.104,1.1667,0,0.048,0,0,0.048,0,0,0.048,0,0,0.048,0,0.1184,0.3296
0.144,0.24,1.5,0.08,0.152,1.1111,0.048,0.096,1,0,0.048,0,0,0.048,0,0,0.048,0,0.1552,0.4832
0,-0.528,-0,0,-0.528,-0,0,-0.528,-0,0,-0.528,-0,0,-0.528,-0,0,-0.528,-0,0.16,0.4976
0,-0.424,-0,0,-0.424,-0,0,-0.424,-0,0,-0.424,-0,0,-0.424,-0,0,-0.424,-0,0.0752,0.256
0,-0.536,-0,0,-0.536,-0,0,-0.536,-0,0,-0.536,-0,0,-0.536,-0,0,-0.536,-0,0.112,0.3696
0.112,-0.496,-0.18421,0.064,-0.544,-0.10526,0.008,-0.6,-0.013158,0,-0.608,-0,0,-0.608,-0,0,-0.608,-0,-0.5008,1.144
0.088,0.144,1.5714,0.024,0.032,3,0,0.008,0,0,0.008,0,0,0.008,0,0,0.008,0,0.1808,0.4432
0.08,0.136,1.4286,0,0.056,0,0,0.056,0,0,0.056,0,0,0.056,0,0,0.056,0,0.1456,0.416
0,0.224,0,0,0.224,0,0,0.224,0,0,0.224,0,0,0.224,0,0,0.224,0,0.1648,0.4816
0,0,NaN,0,0,NaN,0,0,NaN,0,0,NaN,0,0,NaN,0,0,NaN,0.1424,0.3472
0.12,0.208,1.3636,0.072,0.128,1.2857,0.032,0.056,1.3333,0,0.024,0,0,0.024,0,0,0.024,0,0.16,0.4368
0,-0.096,-0,0,-0.096,-0,0,-0.096,-0,0,-0.096,-0,0,-0.096,-0,0,-0.096,-0,0.0832,0.2368
0.096,0.16,1.5,0.032,0.056,1.3333,0,0.024,0,0,0.024,0,0,0.024,0,0,0.024,0,0.1488,0.4576
0,-0.112,-0,0,-0.112,-0,0,-0.112,-0,0,-0.112,-0,0,-0.112,-0,0,-0.112,-0,0.1136,0.3488
0,-0.344,-0,0,-0.344,-0,0,-0.344,-0,0,-0.344,-0,0,-0.344,-0,0,-0.344,-0,0.1184,0.3632
0.152,-0.32,-0.32203,0.088,-0.384,-0.18644,0.056,-0.416,-0.11864,0,-0.472,-0,0,-0.472,-0,0,-0.472,-0,-0.3472,0.7072
0.096,-0.552,-0.14815,0.048,-0.6,-0.074074,0,-0.648,-0,0,-0.648,-0,0,-0.648,-0,0,-0.648,-0,-0.3792,0.84
0.104,-0.528,-0.16456,0.064,-0.568,-0.10127,0,-0.632,-0,0,-0.632,-0,0,-0.632,-0,0,-0.632,-0,-0.4544,1.0384
0.112,-0.448,-0.2,0.072,-0.488,-0.12857,0,-0.56,-0,0,-0.56,-0,0,-0.56,-0,0,-0.56,-0,-0.3776,0.856
0.104,0.16,1.8571,0.056,0.088,1.75,0,0.032,0,0,0.032,0,0,0.032,0,0,0.032,0,0.1264,0.3248
0.088,0.136,1.8333,0.008,0.008,Inf,0,0,NaN,0,0,NaN,0,0,NaN,0,0,NaN,0.0752,0.2608
0,-0.192,-0,0,-0.192,-0,0,-0.192,-0,0,-0.192,-0,0,-0.192,-0,0,-0.192,-0,0.088,0.2576
0.064,0.096,2,0,0.032,0,0,0.032,0,0,0.032,0,0,0.032,0,0,0.032,0,0.1328,0.4144
0.08,0.128,1.6667,0,0.048,0,0,0.048,0,0,0.048,0,0,0.048,0,0,0.048,0,0.1296,0.408
0,-0.112,-0,0,-0.112,-0,0,-0.112,-0,0,-0.112,-0,0,-0.112,-0,0,-0.112,-0,0.1136,0.3936
0.096,0.152,1.7143,0.04,0.056,2.5,0,0.016,0,0,0.016,0,0,0.016,0,0,0.016,0,0.0976,0.216
0,-0.12,-0,0,-0.12,-0,0,-0.12,-0,0,-0.12,-0,0,-0.12,-0,0,-0.12,-0,-0.3008,0.7072
-0.048,-0.032,-3,0.2,0.216,12.5,0.12,0.136,7.5,0,0.016,0,0,0.016,0,0,0.016,0,0.0832,0.3664
0,0.192,0,0,0.192,0,0,0.192,0,0,0.192,0,0,0.192,0,0,0.192,0,0.1568,0.3568
0.104,0.112,13,0.048,0.056,6,0,0.008,0,0,0.008,0,0,0.008,0,0,0.008,0,-0.3536,0.6992
0.264,0.456,1.375,0.176,0.296,1.4667,0.104,0.2,1.0833,0,0.096,0,0,0.096,0,0,0.096,0,0.2176,0.4816
0,-0.312,-0,0,-0.312,-0,0,-0.312,-0,0,-0.312,-0,0,-0.312,-0,0,-0.312,-0,0.136,0.3536
0.064,-0.2,-0.24242,0,-0.264,-0,0,-0.264,-0,0,-0.264,-0,0,-0.264,-0,0,-0.264,-0,-0.2864,0.7808
0.112,0.192,1.4,0.064,0.112,1.3333,0,0.048,0,0,0.048,0,0,0.048,0,0,0.048,0,0.0976,0.248
0,-0.216,-0,0,-0.216,-0,0,-0.216,-0,0,-0.216,-0,0,-0.216,-0,0,-0.216,-0,-0.2592,0.7312
0,0.272,0,0,0.272,0,0,0.272,0,0,0.272,0,0,0.272,0,0,0.272,0,0.1184,0.2416
0,0.32,0,0,0.32,0,0,0.32,0,0,0.32,0,0,0.32,0,0,0.32,0,0.1024,0.2704
0.112,0.216,1.0769,0.056,0.112,1,0,0.056,0,0,0.056,0,0,0.056,0,0,0.056,0,0.1472,0.3744
0.464,0.52,8.2857,0.464,0.52,8.2857,0.056,0.112,1,0,0.056,0,0,0.056,0,0,0.056,0,0.0816,0.1168
0.096,0.192,1,0.04,0.08,1,0,0.04,0,0,0.04,0,0,0.04,0,0,0.04,0,0.1984,0.5056
0,-0.672,-0,0,-0.672,-0,0,-0.672,-0,0,-0.672,-0,0,-0.672,-0,0,-0.672,-0,0.168,0.3904
0,-0.736,-0,0,-0.736,-0,0,-0.736,-0,0,-0.736,-0,0,-0.736,-0,0,-0.736,-0,0.192,0.3568
0,-0.288,-0,0,-0.288,-0,0,-0.288,-0,0,-0.288,-0,0,-0.288,-0,0,-0.288,-0,0.1248,0.2624
0,-0.544,-0,0,-0.544,-0,0,-0.544,-0,0,-0.544,-0,0,-0.544,-0,0,-0.544,-0,-0.3728,0.9648
0.104,-0.48,-0.17808,0.048,-0.536,-0.082192,0,-0.584,-0,0,-0.584,-0,0,-0.584,-0,0,-0.584,-0,-0.3792,0.7552
0,-0.432,-0,0,-0.432,-0,0,-0.432,-0,0,-0.432,-0,0,-0.432,-0,0,-0.432,-0,0.1568,0.3584
0,-0.288,-0,0,-0.288,-0,0,-0.288,-0,0,-0.288,-0,0,-0.288,-0,0,-0.288,-0,0.1184,0.184
0.144,-0.568,-0.20225,0.088,-0.624,-0.1236,0,-0.712,-0,0,-0.712,-0,0,-0.712,-0,0,-0.712,-0,-0.4768,1.1216
0.088,-0.544,-0.13924,0.024,-0.608,-0.037975,0,-0.632,-0,0,-0.632,-0,0,-0.632,-0,0,-0.632,-0,-0.368,0.9248
0.112,-0.328,-0.25455,0.056,-0.384,-0.12727,0,-0.44,-0,0,-0.44,-0,0,-0.44,-0,0,-0.44,-0,-0.3424,0.8624
0.104,-0.584,-0.15116,0.056,-0.632,-0.081395,0,-0.688,-0,0,-0.688,-0,0,-0.688,-0,0,-0.688,-0,-0.2416,0.4592
0.128,0.32,0.66667,0.064,0.208,0.44444,0.04,0.16,0.33333,0,0.12,0,0,0.12,0,0,0.12,0,0.1584,0.3632
0.096,0.064,-3,0.04,0.008,-1.25,0,-0.032,-0,0,-0.032,-0,0,-0.032,-0,0,-0.032,-0,-0.3264,0.7216
0,0.168,0,0,0.168,0,0,0.168,0,0,0.168,0,0,0.168,0,0,0.168,0,0.1184,0.2768
0,0.392,0,0,0.392,0,0,0.392,0,0,0.392,0,0,0.392,0,0,0.392,0,0.1584,0.4016
0,0.368,0,0,0.368,0,0,0.368,0,0,0.368,0,0,0.368,0,0,0.368,0,0.1328,0.2656
0,0.248,0,0,0.248,0,0,0.248,0,0,0.248,0,0,0.248,0,0,0.248,0,0.1152,0.2464
0.104,0.208,1,0.056,0.12,0.875,0.016,0.032,1,0,0.016,0,0,0.016,0,0,0.016,0,0.1472,0.3792
0,0.008,0,0,0.008,0,0,0.008,0,0,0.008,0,0,0.008,0,0,0.008,0,0.0944,0.264
0,0.304,0,0,0.304,0,0,0.304,0,0,0.304,0,0,0.304,0,0,0.304,0,0.0544,0.16
0.112,0.104,-14,0.064,0.056,-8,0,-0.008,-0,0,-0.008,-0,0,-0.008,-0,0,-0.008,-0,-0.392,0.9104
0.104,-0.04,-0.72222,0.064,-0.08,-0.44444,0,-0.144,-0,0,-0.144,-0,0,-0.144,-0,0,-0.144,-0,-0.4928,1.0032
0,-0.136,-0,0,-0.136,-0,0,-0.136,-0,0,-0.136,-0,0,-0.136,-0,0,-0.136,-0,-0.1392,0.3776
0,0.328,0,0,0.328,0,0,0.328,0,0,0.328,0,0,0.328,0,0,0.328,0,0.1408,0.3568
0.464,0.328,-3.4118,0.352,0.216,-2.5882,0.288,0.152,-2.1176,0.16,0.024,-1.1765,0.096,-0.04,-0.70588,0,-0.136,-0,-0.3712,0.8432
0.256,0.072,-1.3913,0.128,-0.056,-0.69565,0.088,-0.096,-0.47826,0,-0.184,-0,0,-0.184,-0,0,-0.184,-0,-0.272,0.8496
0.056,0.088,1.75,0,0.032,0,0,0.032,0,0,0.032,0,0,0.032,0,0,0.032,0,0.216,0.5152
0.056,-0.432,-0.11475,0,-0.488,-0,0,-0.488,-0,0,-0.488,-0,0,-0.488,-0,0,-0.488,-0,-0.3696,0.9008
0.104,-0.192,-0.35135,0.056,-0.24,-0.18919,0,-0.296,-0,0,-0.296,-0,0,-0.296,-0,0,-0.296,-0,-0.36,0.9216
0,-0.448,-0,0,-0.448,-0,0,-0.448,-0,0,-0.448,-0,0,-0.448,-0,0,-0.448,-0,0.1136,0.2672
0.104,0.2,1.0833,0.056,0.112,1,0,0.056,0,0,0.056,0,0,0.056,0,0,0.056,0,0.2144,0.5184
0,0.216,0,0,0.216,0,0,0.216,0,0,0.216,0,0,0.216,0,0,0.216,0,0.1568,0.352
0.064,0.128,1,0,0.064,0,0,0.064,0,0,0.064,0,0,0.064,0,0,0.064,0,0.2272,0.4864
0,-0.312,-0,0,-0.312,-0,0,-0.312,-0,0,-0.312,-0,0,-0.312,-0,0,-0.312,-0,-0.3296,0.728
0,-0.296,-0,0,-0.296,-0,0,-0.296,-0,0,-0.296,-0,0,-0.296,-0,0,-0.296,-0,0.1728,0.3744
0.088,0.152,1.375,0,0.064,0,0,0.064,0,0,0.064,0,0,0.064,0,0,0.064,0,0.2016,0.5008
0.424,0.144,-1.5143,0.12,-0.16,-0.42857,0.096,-0.184,-0.34286,0.032,-0.248,-0.11429,0,-0.28,-0,0,-0.28,-0,-0.2064,0.488
0.136,-0.056,-0.70833,0.056,-0.136,-0.29167,0,-0.192,-0,0,-0.192,-0,0,-0.192,-0,0,-0.192,-0,-0.624,1.4928
0.072,0.144,1,0,0.072,0,0,0.072,0,0,0.072,0,0,0.072,0,0,0.072,0,0.232,0.432
0,-0.568,-0,0,-0.568,-0,0,-0.568,-0,0,-0.568,-0,0,-0.568,-0,0,-0.568,-0,0.1824,0.392
0.088,-0.496,-0.15068,0,-0.584,-0,0,-0.584,-0,0,-0.584,-0,0,-0.584,-0,0,-0.584,-0,-0.4848,1.1664
0.064,0.128,1,0,0.064,0,0,0.064,0,0,0.064,0,0,0.064,0,0,0.064,0,0.2208,0.4576
0.056,-0.664,-0.077778,0,-0.72,-0,0,-0.72,-0,0,-0.72,-0,0,-0.72,-0,0,-0.72,-0,-0.3696,0.76
0.064,-0.616,-0.094118,0,-0.68,-0,0,-0.68,-0,0,-0.68,-0,0,-0.68,-0,0,-0.68,-0,-0.344,0.8
0,-0.136,-0,0,-0.136,-0,0,-0.136,-0,0,-0.136,-0,0,-0.136,-0,0,-0.136,-0,0.1088,0.2416
0,-0.36,-0,0,-0.36,-0,0,-0.36,-0,0,-0.36,-0,0,-0.36,-0,0,-0.36,-0,0.232,0.4144
0.08,0.144,1.25,0,0.064,0,0,0.064,0,0,0.064,0,0,0.064,0,0,0.064,0,0.1504,0.3952
0.104,-0.104,-0.5,0.056,-0.152,-0.26923,0.008,-0.2,-0.038462,0,-0.208,-0,0,-0.208,-0,0,-0.208,-0,-0.4496,0.9744
0.08,0.16,1,0.008,0.016,1,0,0.008,0,0,0.008,0,0,0.008,0,0,0.008,0,0.152,0.328
0,-0.088,-0,0,-0.088,-0,0,-0.088,-0,0,-0.088,-0,0,-0.088,-0,0,-0.088,-0,0.1248,0.2432
0,-0.024,-0,0,-0.024,-0,0,-0.024,-0,0,-0.024,-0,0,-0.024,-0,0,-0.024,-0,0.184,0.3088
0,0.104,0,0,0.104,0,0,0.104,0,0,0.104,0,0,0.104,0,0,0.104,0,0.1152,0.2432
0,-0.224,-0,0,-0.224,-0,0,-0.224,-0,0,-0.224,-0,0,-0.224,-0,0,-0.224,-0,-0.3808,1.0912
0,-0.232,-0,0,-0.232,-0,0,-0.232,-0,0,-0.232,-0,0,-0.232,-0,0,-0.232,-0,-0.2608,0.7888
0,0.296,0,0,0.296,0,0,0.296,0,0,0.296,0,0,0.296,0,0,0.296,0,0.1696,0.368
0.096,0.192,1,0.04,0.096,0.71429,0,0.056,0,0,0.056,0,0,0.056,0,0,0.056,0,0.2464,0.4368
0,-0.08,-0,0,-0.08,-0,0,-0.08,-0,0,-0.08,-0,0,-0.08,-0,0,-0.08,-0,0.1152,0.2576
0.056,-0.48,-0.10448,0,-0.536,-0,0,-0.536,-0,0,-0.536,-0,0,-0.536,-0,0,-0.536,-0,-0.3584,0.7968
0.088,0.176,1,0.04,0.08,1,0,0.04,0,0,0.04,0,0,0.04,0,0,0.04,0,0.216,0.4624
0.096,0.176,1.2,0.04,0.08,1,0,0.04,0,0,0.04,0,0,0.04,0,0,0.04,0,0.2576,0.488
0.36,-0.368,-0.49451,0.176,-0.552,-0.24176,0.104,-0.624,-0.14286,0.048,-0.68,-0.065934,0,-0.728,-0,0,-0.728,-0,-0.304,0.7024
0.104,-0.464,-0.1831,0.064,-0.504,-0.11268,0.024,-0.544,-0.042254,0,-0.568,-0,0,-0.568,-0,0,-0.568,-0,-0.2416,0.6032
0.096,0.184,1.0909,0.056,0.104,1.1667,0,0.048,0,0,0.048,0,0,0.048,0,0,0.048,0,0.2448,0.5024
0,-0.312,-0,0,-0.312,-0,0,-0.312,-0,0,-0.312,-0,0,-0.312,-0,0,-0.312,-0,0.1872,0.3696
0.104,-0.04,-0.72222,0.056,-0.088,-0.38889,0,-0.144,-0,0,-0.144,-0,0,-0.144,-0,0,-0.144,-0,-0.4304,1.0288
0.096,0.192,1,0.056,0.12,0.875,0,0.064,0,0,0.064,0,0,0.064,0,0,0.064,0,0.2736,0.4752
0.128,-0.36,-0.2623,0.08,-0.408,-0.16393,0.048,-0.44,-0.098361,0,-0.488,-0,0,-0.488,-0,0,-0.488,-0,-0.3984,1.0144
0.112,0.184,1.5556,0.064,0.104,1.6,0,0.04,0,0,0.04,0,0,0.04,0,0,0.04,0,0.0976,0.2672
0.096,0.168,1.3333,0.048,0.088,1.2,0,0.04,0,0,0.04,0,0,0.04,0,0,0.04,0,0.1088,0.2496
0,0.216,0,0,0.216,0,0,0.216,0,0,0.216,0,0,0.216,0,0,0.216,0,0.2064,0.3776
0.12,-0.136,-0.46875,0.072,-0.184,-0.28125,0,-0.256,-0,0,-0.256,-0,0,-0.256,-0,0,-0.256,-0,-0.464,1.0352
0.064,-0.136,-0.32,0,-0.2,-0,0,-0.2,-0,0,-0.2,-0,0,-0.2,-0,0,-0.2,-0,-0.3536,0.9264
0,0.04,0,0,0.04,0,0,0.04,0,0,0.04,0,0,0.04,0,0,0.04,0,0.1968,0.3952
0.08,-0.152,-0.34483,0.008,-0.224,-0.034483,0,-0.232,-0,0,-0.232,-0,0,-0.232,-0,0,-0.232,-0,-0.1968,0.448
0,-0.056,-0,0,-0.056,-0,0,-0.056,-0,0,-0.056,-0,0,-0.056,-0,0,-0.056,-0,0.1312,0.2432
0,-0.048,-0,0,-0.048,-0,0,-0.048,-0,0,-0.048,-0,0,-0.048,-0,0,-0.048,-0,0.1664,0.3728
0.104,0.008,-1.0833,0.048,-0.048,-0.5,0,-0.096,-0,0,-0.096,-0,0,-0.096,-0,0,-0.096,-0,-0.3888,0.784
0,0.184,0,0,0.184,0,0,0.184,0,0,0.184,0,0,0.184,0,0,0.184,0,0.1984,0.3648
0.12,0.024,-1.25,0.072,-0.024,-0.75,0.04,-0.056,-0.41667,0,-0.096,-0,0,-0.096,-0,0,-0.096,-0,-0.3632,0.944
0,-0.144,-0,0,-0.144,-0,0,-0.144,-0,0,-0.144,-0,0,-0.144,-0,0,-0.144,-0,0.2064,0.3792
0.088,0.192,0.84615,0.032,0.064,1,0,0.032,0,0,0.032,0,0,0.032,0,0,0.032,0,0.2336,0.5072
0.096,0.184,1.0909,0.032,0.056,1.3333,0,0.024,0,0,0.024,0,0,0.024,0,0,0.024,0,0.2752,0.4832
0.112,-0.664,-0.14433,0.064,-0.712,-0.082474,0,-0.776,-0,0,-0.776,-0,0,-0.776,-0,0,-0.776,-0,-0.6368,1.5936
0,-0.64,-0,0,-0.64,-0,0,-0.64,-0,0,-0.64,-0,0,-0.64,-0,0,-0.64,-0,0.2224,0.392
0.04,-0.688,-0.054945,0,-0.728,-0,0,-0.728,-0,0,-0.728,-0,0,-0.728,-0,0,-0.728,-0,-0.4544,1.0336
0.112,-0.552,-0.16867,0.064,-0.6,-0.096386,0.016,-0.648,-0.024096,0,-0.664,-0,0,-0.664,-0,0,-0.664,-0,-0.4896,1.0784
0.12,-0.608,-0.16484,0.072,-0.656,-0.098901,0.04,-0.688,-0.054945,0,-0.728,-0,0,-0.728,-0,0,-0.728,-0,-0.3824,0.7936
0.064,-0.304,-0.17391,0.032,-0.336,-0.086957,0,-0.368,-0,0,-0.368,-0,0,-0.368,-0,0,-0.368,-0,-0.1296,0.272
0.08,0.168,0.90909,0,0.088,0,0,0.088,0,0,0.088,0,0,0.088,0,0,0.088,0,0.3264,0.6096
0.104,0.16,1.8571,0.056,0.112,1,0,0.056,0,0,0.056,0,0,0.056,0,0,0.056,0,-0.3696,0.784
0.112,-0.048,-0.7,0.064,-0.096,-0.4,0,-0.16,-0,0,-0.16,-0,0,-0.16,-0,0,-0.16,-0,-0.4848,1.08
0.08,0.176,0.83333,0,0.096,0,0,0.096,0,0,0.096,0,0,0.096,0,0,0.096,0,0.1936,0.2384
0.248,-0.056,-0.81579,0.128,-0.176,-0.42105,0.08,-0.224,-0.26316,0,-0.304,-0,0,-0.304,-0,0,-0.304,-0,-0.5376,1.3232
0,-0.544,-0,0,-0.544,-0,0,-0.544,-0,0,-0.544,-0,0,-0.544,-0,0,-0.544,-0,0.1616,0.2752
0.088,0.152,1.375,0,0.064,0,0,0.064,0,0,0.064,0,0,0.064,0,0,0.064,0,0.1744,0.352
0.312,0,-1,0.104,-0.208,-0.33333,0.072,-0.24,-0.23077,0,-0.312,-0,0,-0.312,-0,0,-0.312,-0,-0.2832,0.688
0.064,-0.288,-0.18182,0,-0.352,-0,0,-0.352,-0,0,-0.352,-0,0,-0.352,-0,0,-0.352,-0,-0.208,0.512
0.072,0.12,1.5,0,0.048,0,0,0.048,0,0,0.048,0,0,0.048,0,0,0.048,0,0.2032,0.312
0.16,0.192,5,0.104,0.136,3.25,0.064,0.096,2,0,0.032,0,0,0.032,0,0,0.032,0,0.0992,0.176
0.04,0.072,1.25,0,0.032,0,0,0.032,0,0,0.032,0,0,0.032,0,0,0.032,0,0.1872,0.4048
0.224,0.032,-1.1667,0.52,0.328,-2.7083,0.432,0.24,-2.25,0.24,0.048,-1.25,0.184,-0.008,-0.95833,0.008,-0.184,-0.041667,-0.1824,0.4832
0.336,0.504,2,0.152,0.32,0.90476,0.112,0.28,0.66667,0.056,0.192,0.41176,0,0.136,0,0,0.136,0,0.1472,0.2944
0.096,0.168,1.3333,0.032,0.056,1.3333,0,0.024,0,0,0.024,0,0,0.024,0,0,0.024,0,0.1376,0.3632
0.208,0.272,3.25,0.12,0.16,3,0.032,0.04,4,0,0.008,0,0,0.008,0,0,0.008,0,0.112,0.4016
0.112,0.112,Inf,0.048,0.048,Inf,0,0,NaN,0,0,NaN,0,0,NaN,0,0,NaN,-0.536,1.3344
0,-0.072,-0,0,-0.072,-0,0,-0.072,-0,0,-0.072,-0,0,-0.072,-0,0,-0.072,-0,0.1984,0.4736
0.112,-0.008,-0.93333,0.056,-0.064,-0.46667,0,-0.12,-0,0,-0.12,-0,0,-0.12,-0,0,-0.12,-0,-0.5088,1.272
0.104,0.216,0.92857,0.024,0.04,1.5,0,0.016,0,0,0.016,0,0,0.016,0,0,0.016,0,0.2576,0.504
0.08,0.176,0.83333,0,0.096,0,0,0.096,0,0,0.096,0,0,0.096,0,0,0.096,0,0.2,0.4512
0.136,0.28,0.94444,0.088,0.192,0.84615,0.056,0.104,1.1667,0,0.048,0,0,0.048,0,0,0.048,0,0.256,0.5168
0.112,0.216,1.0769,0.04,0.056,2.5,0,0.016,0,0,0.016,0,0,0.016,0,0,0.016,0,0.1968,0.4352
0.136,0.28,0.94444,0.08,0.168,0.90909,0.032,0.064,1,0,0.032,0,0,0.032,0,0,0.032,0,0.2624,0.488
0.104,0.192,1.1818,0,0.088,0,0,0.088,0,0,0.088,0,0,0.088,0,0,0.088,0,0.1712,0.2944
0.088,0.192,0.84615,0,0.104,0,0,0.104,0,0,0.104,0,0,0.104,0,0,0.104,0,0.256,0.52
0.104,-0.528,-0.16456,0.032,-0.6,-0.050633,0,-0.632,-0,0,-0.632,-0,0,-0.632,-0,0,-0.632,-0,-0.5392,1.3152
0.136,0.232,1.4167,0.08,0.128,1.6667,0,0.048,0,0,0.048,0,0,0.048,0,0,0.048,0,0.208,0.552
0.128,-0.016,-0.88889,0.08,-0.064,-0.55556,0.032,-0.112,-0.22222,0,-0.144,-0,0,-0.144,-0,0,-0.144,-0,-0.4352,1.088
0.088,0.144,1.5714,0,0.056,0,0,0.056,0,0,0.056,0,0,0.056,0,0,0.056,0,0.1968,0.6208
0.064,0.136,0.88889,0,0.072,0,0,0.072,0,0,0.072,0,0,0.072,0,0,0.072,0,0.1824,0.264
0.28,0.432,1.8421,0.152,0.272,1.2667,0.112,0.216,1.0769,0,0.104,0,0,0.104,0,0,0.104,0,0.24,0.4704
0.072,-0.264,-0.21429,0,-0.336,-0,0,-0.336,-0,0,-0.336,-0,0,-0.336,-0,0,-0.336,-0,-0.5392,1.2992
0.088,0.184,0.91667,0,0.096,0,0,0.096,0,0,0.096,0,0,0.096,0,0,0.096,0,0.1968,0.4496
0.056,0.128,0.77778,0,0.072,0,0,0.072,0,0,0.072,0,0,0.072,0,0,0.072,0,0.2464,0.5616
0.128,0.248,1.0667,0.056,0.12,0.875,0,0.064,0,0,0.064,0,0,0.064,0,0,0.064,0,0.2544,0.5664
0.2,0.328,1.5625,0.128,0.224,1.3333,0.096,0.176,1.2,0,0.08,0,0,0.08,0,0,0.08,0,0.24,0.5616
0,-0.128,-0,0,-0.128,-0,0,-0.128,-0,0,-0.128,-0,0,-0.128,-0,0,-0.128,-0,-0.5536,1.3712
0.24,0.2,-6,0.112,0.072,-2.8,0.064,0.024,-1.6,0,-0.04,-0,0,-0.04,-0,0,-0.04,-0,-0.5888,1.4032
0.192,0.08,-1.7143,0.08,-0.032,-0.71429,0,-0.112,-0,0,-0.112,-0,0,-0.112,-0,0,-0.112,-0,-0.376,0.8784
0.08,0.152,1.1111,0,0.072,0,0,0.072,0,0,0.072,0,0,0.072,0,0,0.072,0,0.1696,0.4688
0,-0.416,-0,0,-0.416,-0,0,-0.416,-0,0,-0.416,-0,0,-0.416,-0,0,-0.416,-0,-0.2416,0.6608
0.152,0.264,1.3571,0.08,0.16,1,0.048,0.08,1.5,0,0.032,0,0,0.032,0,0,0.032,0,0.2128,0.5264
0.16,-0.072,-0.68966,0.096,-0.136,-0.41379,0.056,-0.176,-0.24138,0,-0.232,-0,0,-0.232,-0,0,-0.232,-0,-0.472,1.0512
0.096,0.168,1.3333,0,0.072,0,0,0.072,0,0,0.072,0,0,0.072,0,0,0.072,0,0.2272,0.5216
0.072,0.136,1.125,0,0.064,0,0,0.064,0,0,0.064,0,0,0.064,0,0,0.064,0,0.1616,0.4176
0.136,0.256,1.1333,0.064,0.104,1.6,0,0.04,0,0,0.04,0,0,0.04,0,0,0.04,0,0.2192,0.4736
0,-0.176,-0,0,-0.176,-0,0,-0.176,-0,0,-0.176,-0,0,-0.176,-0,0,-0.176,-0,-0.352,0.8896
0.208,-0.152,-0.57778,0.136,-0.224,-0.37778,0.072,-0.288,-0.2,0,-0.36,-0,0,-0.36,-0,0,-0.36,-0,-0.5744,1.4816
0.128,-0.072,-0.64,0.064,-0.136,-0.32,0,-0.2,-0,0,-0.2,-0,0,-0.2,-0,0,-0.2,-0,-0.512,1.072
0.12,-0.264,-0.3125,0.048,-0.336,-0.125,0,-0.384,-0,0,-0.384,-0,0,-0.384,-0,0,-0.384,-0,-0.5232,1.2128
0.12,-0.232,-0.34091,0.064,-0.288,-0.18182,0,-0.352,-0,0,-0.352,-0,0,-0.352,-0,0,-0.352,-0,-0.5168,1.208
0.136,0.24,1.3077,0.064,0.104,1.6,0,0.04,0,0,0.04,0,0,0.04,0,0,0.04,0,0.2048,0.4992
0.136,0.24,1.3077,0.072,0.136,1.125,0,0.064,0,0,0.064,0,0,0.064,0,0,0.064,0,0.2256,0.6432
0.104,0.176,1.4444,0.032,0.056,1.3333,0,0.024,0,0,0.024,0,0,0.024,0,0,0.024,0,0.2064,0.6032
0,-0.072,-0,0,-0.072,-0,0,-0.072,-0,0,-0.072,-0,0,-0.072,-0,0,-0.072,-0,-0.4656,1.0032
0,-0.072,-0,0,-0.072,-0,0,-0.072,-0,0,-0.072,-0,0,-0.072,-0,0,-0.072,-0,-0.1584,0.4704
0,0.048,0,0,0.048,0,0,0.048,0,0,0.048,0,0,0.048,0,0,0.048,0,0.2368,0.568
0.248,0.392,1.7222,0.136,0.248,1.2143,0.096,0.176,1.2,0,0.08,0,0,0.08,0,0,0.08,0,0.2432,0.5568
0,0.344,0,0,0.344,0,0,0.344,0,0,0.344,0,0,0.344,0,0,0.344,0,0.2256,0.552
0.224,-0.032,-0.875,0,-0.256,-0,0,-0.256,-0,0,-0.256,-0,0,-0.256,-0,0,-0.256,-0,-0.56,1.3072
0.136,-0.216,-0.38636,0.048,-0.304,-0.13636,0,-0.352,-0,0,-0.352,-0,0,-0.352,-0,0,-0.352,-0,-0.4848,1.1328
0,0.128,0,0,0.128,0,0,0.128,0,0,0.128,0,0,0.128,0,0,0.128,0,0.2352,0.5664
0,-0.336,-0,0,-0.336,-0,0,-0.336,-0,0,-0.336,-0,0,-0.336,-0,0,-0.336,-0,-0.3888,0.8496
0.424,0.632,2.0385,0.408,0.616,1.9615,0.408,0.616,1.9615,0.136,0.216,1.7,0,0.08,0,0,0.08,0,0.2272,0.552
0.24,0,-1,0.128,-0.112,-0.53333,0.088,-0.152,-0.36667,0,-0.24,-0,0,-0.24,-0,0,-0.24,-0,-0.5264,1.1712
0.104,-0.264,-0.28261,0,-0.368,-0,0,-0.368,-0,0,-0.368,-0,0,-0.368,-0,0,-0.368,-0,-0.44,1.0736
0.224,0.328,2.1538,0.104,0.168,1.625,0.032,0.04,4,0,0.008,0,0,0.008,0,0,0.008,0,0.232,0.4864
0.088,0.168,1.1,0,0.08,0,0,0.08,0,0,0.08,0,0,0.08,0,0,0.08,0,0.184,0.5872
0,-0.208,-0,0,-0.208,-0,0,-0.208,-0,0,-0.208,-0,0,-0.208,-0,0,-0.208,-0,0.12,0.1264
0,-0.208,-0,0,-0.208,-0,0,-0.208,-0,0,-0.208,-0,0,-0.208,-0,0,-0.208,-0,0.12,0.1264
0.096,0.152,1.7143,0.056,0.096,1.4,0.04,0.072,1.25,0,0.032,0,0,0.032,0,0,0.032,0,0.152,0.1648
0,-0.144,-0,0,-0.144,-0,0,-0.144,-0,0,-0.144,-0,0,-0.144,-0,0,-0.144,-0,0.1392,0.176
0,-0.096,-0,0,-0.096,-0,0,-0.096,-0,0,-0.096,-0,0,-0.096,-0,0,-0.096,-0,0.1024,0.2192
0.024,-0.256,-0.085714,0,-0.28,-0,0,-0.28,-0,0,-0.28,-0,0,-0.28,-0,0,-0.28,-0,-0.3968,0.7968
0,-0.24,-0,0,-0.24,-0,0,-0.24,-0,0,-0.24,-0,0,-0.24,-0,0,-0.24,-0,0.2016,0.5168
0.112,-0.072,-0.6087,0.072,-0.112,-0.3913,0.032,-0.152,-0.17391,0,-0.184,-0,0,-0.184,-0,0,-0.184,-0,-0.3584,0.8576
0.064,0.112,1.3333,0,0.048,0,0,0.048,0,0,0.048,0,0,0.048,0,0,0.048,0,0.24,0.4192
-0.008,0.296,-0.026316,0.192,0.312,1.6,0.12,0.2,1.5,0,0.08,0,0,0.08,0,0,0.08,0,0.1936,0.5008
0.128,0.208,1.6,0.072,0.12,1.5,0.032,0.048,2,0,0.016,0,0,0.016,0,0,0.016,0,0.2032,0.5952
0.104,0.024,-1.3,0.04,-0.04,-0.5,0,-0.08,-0,0,-0.08,-0,0,-0.08,-0,0,-0.08,-0,-0.5888,1.4288
0.12,-0.112,-0.51724,0.064,-0.168,-0.27586,0,-0.232,-0,0,-0.232,-0,0,-0.232,-0,0,-0.232,-0,-0.4704,1.152
0.056,0.112,1,0,0.056,0,0,0.056,0,0,0.056,0,0,0.056,0,0,0.056,0,0.2496,0.5184
0.096,-0.128,-0.42857,0.048,-0.176,-0.21429,0,-0.224,-0,0,-0.224,-0,0,-0.224,-0,0,-0.224,-0,-0.5008,1.2128
0.12,0.232,1.0714,0.064,0.12,1.1429,0,0.056,0,0,0.056,0,0,0.056,0,0,0.056,0,0.2272,0.552
0.08,-0.616,-0.11494,0,-0.696,-0,0,-0.696,-0,0,-0.696,-0,0,-0.696,-0,0,-0.696,-0,-0.4352,1.0688
0.184,-0.416,-0.30667,0.136,-0.464,-0.22667,0.104,-0.496,-0.17333,0,-0.6,-0,0,-0.6,-0,0,-0.6,-0,-0.3184,0.6656
0.064,0.112,1.3333,0,0.048,0,0,0.048,0,0,0.048,0,0,0.048,0,0,0.048,0,0.1712,0.432
0.248,0.4,1.6316,0.112,0.208,1.1667,0.04,0.072,1.25,0,0.032,0,0,0.032,0,0,0.032,0,0.1776,0.3792
0,-0.072,-0,0,-0.072,-0,0,-0.072,-0,0,-0.072,-0,0,-0.072,-0,0,-0.072,-0,-0.4128,1.0416
0.096,0.12,4,0,0.024,0,0,0.024,0,0,0.024,0,0,0.024,0,0,0.024,0,-0.3472,0.6848
0.12,-0.032,-0.78947,0,-0.152,-0,0,-0.152,-0,0,-0.152,-0,0,-0.152,-0,0,-0.152,-0,-0.4272,0.864
0.112,0.128,7,0.064,0.08,4,0,0.016,0,0,0.016,0,0,0.016,0,0,0.016,0,-0.5008,1.2432
0.128,0.056,-1.7778,0.072,0,-1,0,-0.072,-0,0,-0.072,-0,0,-0.072,-0,0,-0.072,-0,-0.392,0.936
0.12,0.256,0.88235,0.072,0.16,0.81818,0,0.088,0,0,0.088,0,0,0.088,0,0,0.088,0,0.1936,0.5376
0.12,0.152,3.75,0,0.032,0,0,0.032,0,0,0.032,0,0,0.032,0,0,0.032,0,0.1136,0.304
0.08,0.032,-1.6667,1.232,1.184,-25.667,1.216,1.168,-25.333,1.2,1.152,-25,1.2,1.152,-25,1.192,1.144,-24.833,-0.4912,1.0896
1.264,1.144,-10.533,1.264,1.144,-10.533,0.536,0.416,-4.4667,0.28,0.16,-2.3333,0.192,0.072,-1.6,0.16,0.04,-1.3333,-0.2272,0.5744
0,0.08,0,0,0.08,0,0,0.08,0,0,0.08,0,0,0.08,0,0,0.08,0,0.1264,0.3536
0,-0.192,-0,0,-0.192,-0,0,-0.192,-0,0,-0.192,-0,0,-0.192,-0,0,-0.192,-0,-0.2576,0.6544
0,0.096,0,0,0.096,0,0,0.096,0,0,0.096,0,0,0.096,0,0,0.096,0,0.096,0.28
0.312,0.096,-1.4444,0.312,0.096,-1.4444,0.312,0.096,-1.4444,0.288,0.072,-1.3333,0.144,-0.072,-0.66667,0.112,-0.104,-0.51852,-0.328,0.7552
0.24,0.064,-1.3636,0.144,-0.032,-0.81818,0.112,-0.064,-0.63636,0,-0.176,-0,0,-0.176,-0,0,-0.176,-0,-0.248,0.4864
0.032,-0.176,-0.15385,0.224,0.016,-1.0769,0.12,-0.088,-0.57692,0,-0.208,-0,0,-0.208,-0,0,-0.208,-0,-0.4672,1.1296
0.152,0.24,1.7273,0.08,0.136,1.4286,0.04,0.064,1.6667,0,0.024,0,0,0.024,0,0,0.024,0,0.1712,0.3792
-0.16,0,-1,0.24,0.344,2.3077,0.128,0.208,1.6,0,0.08,0,0,0.08,0,0,0.08,0,0.1584,0.4928
0.048,0.08,1.5,0,0.032,0,0,0.032,0,0,0.032,0,0,0.032,0,0,0.032,0,0.1056,0.2752
0.08,0.152,1.1111,0.016,0.032,1,0,0.016,0,0,0.016,0,0,0.016,0,0,0.016,0,0.1696,0.4848
0.104,0.184,1.3,0.048,0.088,1.2,0,0.04,0,0,0.04,0,0,0.04,0,0,0.04,0,0.192,0.5008
0.072,0.128,1.2857,0,0.056,0,0,0.056,0,0,0.056,0,0,0.056,0,0,0.056,0,0.1984,0.5552
0.112,0.016,-1.1667,0.056,-0.04,-0.58333,0,-0.096,-0,0,-0.096,-0,0,-0.096,-0,0,-0.096,-0,-0.4288,0.9776
0,-0.104,-0,0,-0.104,-0,0,-0.104,-0,0,-0.104,-0,0,-0.104,-0,0,-0.104,-0,-0.5136,1.1824
-0.504,-0.336,-3,-0.504,-0.336,-3,0.272,0.392,2.2667,0,0.12,0,0,0.12,0,0,0.12,0,0.176,0.4592
0.112,0.192,1.4,0.048,0.08,1.5,0,0.032,0,0,0.032,0,0,0.032,0,0,0.032,0,0.1968,0.4992
0.112,0.184,1.5556,0.056,0.096,1.4,0,0.04,0,0,0.04,0,0,0.04,0,0,0.04,0,0.1648,0.4672
0.104,-0.208,-0.33333,0.056,-0.256,-0.17949,0.024,-0.288,-0.076923,0,-0.312,-0,0,-0.312,-0,0,-0.312,-0,-0.4928,1.1424
0.096,0.16,1.5,0.04,0.064,1.6667,0,0.024,0,0,0.024,0,0,0.024,0,0,0.024,0,0.16,0.5152
0.104,0.176,1.4444,0.056,0.096,1.4,0,0.04,0,0,0.04,0,0,0.04,0,0,0.04,0,0.1392,0.3952
0,-0.592,-0,0,-0.592,-0,0,-0.592,-0,0,-0.592,-0,0,-0.592,-0,0,-0.592,-0,-0.4928,1.0576
0.112,0.192,1.4,0.056,0.096,1.4,0,0.04,0,0,0.04,0,0,0.04,0,0,0.04,0,0.1728,0.536
0.112,0.184,1.5556,0.056,0.096,1.4,0,0.04,0,0,0.04,0,0,0.04,0,0,0.04,0,0.1728,0.4496
0.096,0.184,1.0909,0,0.088,0,0,0.088,0,0,0.088,0,0,0.088,0,0,0.088,0,0.1616,0.3744
0.12,-0.344,-0.25862,0.056,-0.408,-0.12069,0,-0.464,-0,0,-0.464,-0,0,-0.464,-0,0,-0.464,-0,-0.5168,1.2512
0.104,0.216,0.92857,0.04,0.088,0.83333,0,0.048,0,0,0.048,0,0,0.048,0,0,0.048,0,0.2224,0.5248
0,-0.08,-0,0,-0.08,-0,0,-0.08,-0,0,-0.08,-0,0,-0.08,-0,0,-0.08,-0,0.088,0.2528
0.12,0.216,1.25,0.056,0.112,1,0,0.056,0,0,0.056,0,0,0.056,0,0,0.056,0,0.1968,0.5808
0,0.312,0,0,0.312,0,0,0.312,0,0,0.312,0,0,0.312,0,0,0.312,0,0.1248,0.3408
0,-0.176,-0,0,-0.176,-0,0,-0.176,-0,0,-0.176,-0,0,-0.176,-0,0,-0.176,-0,-0.3392,0.952
0,-0.176,-0,0,-0.176,-0,0,-0.176,-0,0,-0.176,-0,0,-0.176,-0,0,-0.176,-0,-0.3392,0.952
0.128,0.208,1.6,0.072,0.12,1.5,0.016,0.032,1,0,0.016,0,0,0.016,0,0,0.016,0,0.1696,0.344
0,-0.104,-0,0,-0.104,-0,0,-0.104,-0,0,-0.104,-0,0,-0.104,-0,0,-0.104,-0,0.16,0.3488
0.112,0.2,1.2727,0.064,0.12,1.1429,0.024,0.04,1.5,0,0.016,0,0,0.016,0,0,0.016,0,0.1488,0.448
0.088,0.24,0.57895,0.088,0.16,1.2222,0.088,0.128,2.2,0,0.04,0,0,0.04,0,0,0.04,0,0.1328,0.3888
0,-0.392,-0,0,-0.392,-0,0,-0.392,-0,0,-0.392,-0,0,-0.392,-0,0,-0.392,-0,0.0896,0.2224
0,-0.184,-0,0,-0.184,-0,0,-0.184,-0,0,-0.184,-0,0,-0.184,-0,0,-0.184,-0,0.1136,0.3392
0.096,0.176,1.2,0,0.08,0,0,0.08,0,0,0.08,0,0,0.08,0,0,0.08,0,0.1952,0.5632
0.096,0.168,1.3333,0,0.072,0,0,0.072,0,0,0.072,0,0,0.072,0,0,0.072,0,0.192,0.5872
0.136,0.24,1.3077,0.088,0.168,1.1,0.048,0.096,1,0,0.048,0,0,0.048,0,0,0.048,0,0.1856,0.5424
0.064,0.112,1.3333,0,0.048,0,0,0.048,0,0,0.048,0,0,0.048,0,0,0.048,0,0.152,0.328
0,-0.112,-0,0,-0.112,-0,0,-0.112,-0,0,-0.112,-0,0,-0.112,-0,0,-0.112,-0,-0.2208,0.5456
0.128,0.208,1.6,0.072,0.12,1.5,0,0.048,0,0,0.048,0,0,0.048,0,0,0.048,0,0.1744,0.5056
0.4,0.048,-1.1364,0.4,0.048,-1.1364,0.4,0.048,-1.1364,0.4,0.048,-1.1364,0.4,0.048,-1.1364,0.4,0.048,-1.1364,-0.5392,1.2688
0.12,-0.248,-0.32609,0.056,-0.312,-0.15217,0,-0.368,-0,0,-0.368,-0,0,-0.368,-0,0,-0.368,-0,-0.5536,1.2912
0.128,0.208,1.6,0.072,0.104,2.25,0,0.032,0,0,0.032,0,0,0.032,0,0,0.032,0,0.1904,0.568
0.128,0.232,1.2308,0.072,0.128,1.2857,0,0.056,0,0,0.056,0,0,0.056,0,0,0.056,0,0.1712,0.4608
0.112,0.216,1.0769,0.048,0.096,1,0,0.048,0,0,0.048,0,0,0.048,0,0,0.048,0,0.1648,0.488
0.128,0.216,1.4545,0.072,0.128,1.2857,0,0.056,0,0,0.056,0,0,0.056,0,0,0.056,0,0.1616,0.5008
0,-0.504,-0,0,-0.504,-0,0,-0.504,-0,0,-0.504,-0,0,-0.504,-0,0,-0.504,-0,0.088,0.2624
0.104,0.176,1.4444,0.056,0.096,1.4,0,0.04,0,0,0.04,0,0,0.04,0,0,0.04,0,0.1536,0.4176
0.136,-0.256,-0.34694,0.088,-0.304,-0.22449,0.064,-0.328,-0.16327,0,-0.392,-0,0,-0.392,-0,0,-0.392,-0,-0.36,0.8544
0,-0.192,-0,0,-0.192,-0,0,-0.192,-0,0,-0.192,-0,0,-0.192,-0,0,-0.192,-0,0.1424,0.1376
0,-0.344,-0,0,-0.344,-0,0,-0.344,-0,0,-0.344,-0,0,-0.344,-0,0,-0.344,-0,0.1152,0.16
0.12,-0.312,-0.27778,0.08,-0.352,-0.18519,0.064,-0.368,-0.14815,0,-0.432,-0,0,-0.432,-0,0,-0.432,-0,-0.1584,0.4336
0,-0.264,-0,0,-0.264,-0,0,-0.264,-0,0,-0.264,-0,0,-0.264,-0,0,-0.264,-0,0.1216,0.1264
0.128,0.24,1.1429,0.128,0.224,1.3333,0.096,0.16,1.5,0,0.064,0,0,0.064,0,0,0.064,0,0.0976,0.1392
0.064,0.104,1.6,0,0.04,0,0,0.04,0,0,0.04,0,0,0.04,0,0,0.04,0,0.128,0.1168
0.072,-0.096,-0.42857,0.048,-0.12,-0.28571,0.024,-0.144,-0.14286,0,-0.168,-0,0,-0.168,-0,0,-0.168,-0,-0.1552,0.4192
0,0,NaN,0,0,NaN,0,0,NaN,0,0,NaN,0,0,NaN,0,0,NaN,0.12,0.1376
0.088,0.128,2.2,0.024,0.04,1.5,0,0.016,0,0,0.016,0,0,0.016,0,0,0.016,0,0.1136,0.168
0.032,0,-1,0,-0.032,-0,0,-0.032,-0,0,-0.032,-0,0,-0.032,-0,0,-0.032,-0,-0.16,0.4304
-0.184,-0.064,-1.5333,0.056,0.104,1.1667,0,0.048,0,0,0.048,0,0,0.048,0,0,0.048,0,0.1184,0.1456
0.096,-0.056,-0.63158,0.064,-0.088,-0.42105,0.04,-0.112,-0.26316,0,-0.152,-0,0,-0.152,-0,0,-0.152,-0,-0.1504,0.4128
0,0.064,0,0,0.064,0,0,0.064,0,0,0.064,0,0,0.064,0,0,0.064,0,0.1248,0.1264
0.144,0.232,1.6364,0.144,0.232,1.6364,0.144,0.232,1.6364,0.144,0.232,1.6364,0.072,0.128,1.2857,0,0.056,0,0.1008,0.1536
0.184,0.16,-7.6667,0.048,0.024,-2,0,-0.024,-0,0,-0.024,-0,0,-0.024,-0,0,-0.024,-0,-0.5888,1.368
0,0.28,0,0,0.28,0,0,0.28,0,0,0.28,0,0,0.28,0,0,0.28,0,0.1568,0.3328
0.2,0.256,3.5714,0.016,0.016,Inf,0,0,NaN,0,0,NaN,0,0,NaN,0,0,NaN,0.1616,0.728
0.08,0.144,1.25,0,0.064,0,0,0.064,0,0,0.064,0,0,0.064,0,0,0.064,0,0.16,0.4912
0.056,0.08,2.3333,0,0.024,0,0,0.024,0,0,0.024,0,0,0.024,0,0,0.024,0,0.1264,0.2432
0.056,0.08,2.3333,0,0.024,0,0,0.024,0,0,0.024,0,0,0.024,0,0,0.024,0,0.1264,0.2432
0.08,-0.032,-0.71429,0.04,-0.072,-0.35714,0,-0.112,-0,0,-0.112,-0,0,-0.112,-0,0,-0.112,-0,-0.3392,0.8384
0.056,0.096,1.4,0,0.04,0,0,0.04,0,0,0.04,0,0,0.04,0,0,0.04,0,0.1504,0.2816
0.08,0.128,1.6667,0.048,0.08,1.5,0,0.032,0,0,0.032,0,0,0.032,0,0,0.032,0,0.152,0.1824
0.08,0.144,1.25,0,0.064,0,0,0.064,0,0,0.064,0,0,0.064,0,0,0.064,0,0.1616,0.4016
0,0.28,0,0,0.28,0,0,0.28,0,0,0.28,0,0,0.28,0,0,0.28,0,0.096,0.1584
0.088,0.008,-1.1,0.048,-0.032,-0.6,0,-0.08,-0,0,-0.08,-0,0,-0.08,-0,0,-0.08,-0,-0.3632,0.832
0.08,0.144,1.25,0.032,0.056,1.3333,0,0.024,0,0,0.024,0,0,0.024,0,0,0.024,0,0.1488,0.3808
0.24,0.36,2,0.16,0.256,1.6667,0.12,0.2,1.5,0.032,0.056,1.3333,0,0.024,0,0,0.024,0,0.1584,0.408
0.088,-0.072,-0.55,0,-0.16,-0,0,-0.16,-0,0,-0.16,-0,0,-0.16,-0,0,-0.16,-0,-0.3888,0.8976
0.12,-0.144,-0.45455,0.08,-0.184,-0.30303,0.048,-0.216,-0.18182,0,-0.264,-0,0,-0.264,-0,0,-0.264,-0,-0.272,0.5024
0.128,-0.008,-0.94118,0.08,-0.056,-0.58824,0.04,-0.096,-0.29412,0,-0.136,-0,0,-0.136,-0,0,-0.136,-0,-0.272,0.4864
-0.136,-0.104,-4.25,0,0.032,0,0,0.032,0,0,0.032,0,0,0.032,0,0,0.032,0,0.0816,0.3152
0.088,0.16,1.2222,0.04,0.072,1.25,0,0.032,0,0,0.032,0,0,0.032,0,0,0.032,0,0.1728,0.6272
0.104,0.176,1.4444,0.056,0.096,1.4,0,0.04,0,0,0.04,0,0,0.04,0,0,0.04,0,0.1808,0.5248
0,0.008,0,0,0.008,0,0,0.008,0,0,0.008,0,0,0.008,0,0,0.008,0,0.1728,0.2192
0.088,-0.088,-0.5,0,-0.176,-0,0,-0.176,-0,0,-0.176,-0,0,-0.176,-0,0,-0.176,-0,-0.5216,1.2144
0.176,0.272,1.8333,0.104,0.176,1.4444,0.072,0.12,1.5,0,0.048,0,0,0.048,0,0,0.048,0,0.2016,0.424
0.336,0.496,2.1,0.32,0.48,2,0.312,0.472,1.95,0.072,0.12,1.5,0,0.048,0,0,0.048,0,0.1536,0.4336
0.088,-0.08,-0.52381,0.048,-0.12,-0.28571,0,-0.168,-0,0,-0.168,-0,0,-0.168,-0,0,-0.168,-0,-0.4416,0.9872
0.08,0.152,1.1111,0.024,0.048,1,0,0.024,0,0,0.024,0,0,0.024,0,0,0.024,0,0.1744,0.4352
0,-0.504,-0,0,-0.504,-0,0,-0.504,-0,0,-0.504,-0,0,-0.504,-0,0,-0.504,-0,-0.3312,0.8288
0.312,0.464,2.0526,0.176,0.28,1.6923,0.128,0.216,1.4545,0.056,0.096,1.4,0,0.04,0,0,0.04,0,0.184,0.488
0.08,0.136,1.4286,0,0.056,0,0,0.056,0,0,0.056,0,0,0.056,0,0,0.056,0,0.2,0.4784
0,-0.488,-0,0,-0.488,-0,0,-0.488,-0,0,-0.488,-0,0,-0.488,-0,0,-0.488,-0,-0.3696,0.8832
0.072,0.12,1.5,0,0.048,0,0,0.048,0,0,0.048,0,0,0.048,0,0,0.048,0,0.1712,0.4736
0.096,-0.136,-0.41379,0,-0.232,-0,0,-0.232,-0,0,-0.232,-0,0,-0.232,-0,0,-0.232,-0,-0.2096,0.5696
0.104,0.176,1.4444,0.056,0.096,1.4,0.024,0.04,1.5,0,0.016,0,0,0.016,0,0,0.016,0,0.1712,0.464
0.072,0.12,1.5,0,0.048,0,0,0.048,0,0,0.048,0,0,0.048,0,0,0.048,0,0.1088,0.296
0,-0.176,-0,0,-0.176,-0,0,-0.176,-0,0,-0.176,-0,0,-0.176,-0,0,-0.176,-0,-0.152,0.4272
0.232,0.352,1.9333,0.128,0.216,1.4545,0.096,0.168,1.3333,0,0.072,0,0,0.072,0,0,0.072,0,0.1872,0.4576
0.112,-0.312,-0.26415,0.056,-0.368,-0.13208,0,-0.424,-0,0,-0.424,-0,0,-0.424,-0,0,-0.424,-0,-0.6528,1.344
0.112,-0.312,-0.26415,0.056,-0.368,-0.13208,0,-0.424,-0,0,-0.424,-0,0,-0.424,-0,0,-0.424,-0,-0.6528,1.344
0.112,-0.184,-0.37838,0.048,-0.248,-0.16216,0,-0.296,-0,0,-0.296,-0,0,-0.296,-0,0,-0.296,-0,-0.384,0.7696
0.112,0.2,1.2727,0.064,0.112,1.3333,0,0.048,0,0,0.048,0,0,0.048,0,0,0.048,0,0.1424,0.376
0.112,-0.072,-0.6087,0.056,-0.128,-0.30435,0,-0.184,-0,0,-0.184,-0,0,-0.184,-0,0,-0.184,-0,-0.2688,0.6496
0.256,0.216,-6.4,0.136,0.096,-3.4,0.104,0.064,-2.6,0,-0.04,-0,0,-0.04,-0,0,-0.04,-0,-0.2624,0.6944
0.208,0.312,2,0.12,0.192,1.6667,0.08,0.12,2,0,0.04,0,0,0.04,0,0,0.04,0,0.1888,0.4576
0,0.104,0,0,0.104,0,0,0.104,0,0,0.104,0,0,0.104,0,0,0.104,0,0.0928,0.2704
0.12,-0.032,-0.78947,0.064,-0.088,-0.42105,0,-0.152,-0,0,-0.152,-0,0,-0.152,-0,0,-0.152,-0,-0.368,0.8416
0,0.04,0,0,0.04,0,0,0.04,0,0,0.04,0,0,0.04,0,0,0.04,0,0.1472,0.416
0.12,0.2,1.5,0.064,0.112,1.3333,0,0.048,0,0,0.048,0,0,0.048,0,0,0.048,0,0.1296,0.3648
0.136,-0.248,-0.35417,0.096,-0.288,-0.25,0.064,-0.32,-0.16667,0,-0.384,-0,0,-0.384,-0,0,-0.384,-0,-0.32,0.7776
0.152,-0.248,-0.38,0.104,-0.296,-0.26,0.072,-0.328,-0.18,0,-0.4,-0,0,-0.4,-0,0,-0.4,-0,-0.2048,0.5328
0,-0.304,-0,0,-0.304,-0,0,-0.304,-0,0,-0.304,-0,0,-0.304,-0,0,-0.304,-0,0.0992,0.1536
0,-0.368,-0,0,-0.368,-0,0,-0.368,-0,0,-0.368,-0,0,-0.368,-0,0,-0.368,-0,0.0656,0.1264
0.136,0.2,2.125,0.088,0.136,1.8333,0.048,0.08,1.5,0,0.032,0,0,0.032,0,0,0.032,0,0.0992,0.3488
0.12,-0.272,-0.30612,0.04,-0.352,-0.10204,0,-0.392,-0,0,-0.392,-0,0,-0.392,-0,0,-0.392,-0,-0.3472,0.8064
0,-0.264,-0,0,-0.264,-0,0,-0.264,-0,0,-0.264,-0,0,-0.264,-0,0,-0.264,-0,0.0656,0.2976
0.208,-0.088,-0.7027,0.152,-0.144,-0.51351,0.12,-0.176,-0.40541,0.016,-0.28,-0.054054,0,-0.296,-0,0,-0.296,-0,-0.2672,0.6336
0.136,0.208,1.8889,0.088,0.136,1.8333,0.04,0.064,1.6667,0,0.024,0,0,0.024,0,0,0.024,0,0.1168,0.3856
0.136,0.208,1.8889,0.08,0.128,1.6667,0,0.048,0,0,0.048,0,0,0.048,0,0,0.048,0,0.12,0.448
0.152,0.208,2.7143,0.096,0.128,3,0.032,0.04,4,0,0.008,0,0,0.008,0,0,0.008,0,0.1168,0.3696
0,-0.184,-0,0,-0.184,-0,0,-0.184,-0,0,-0.184,-0,0,-0.184,-0,0,-0.184,-0,0.0608,0.288
0.128,0.184,2.2857,0.072,0.104,2.25,0,0.032,0,0,0.032,0,0,0.032,0,0,0.032,0,0.096,0.3376
0,-0.224,-0,0,-0.224,-0,0,-0.224,-0,0,-0.224,-0,0,-0.224,-0,0,-0.224,-0,-0.3456,0.9152
0,-0.064,-0,0,-0.064,-0,0,-0.064,-0,0,-0.064,-0,0,-0.064,-0,0,-0.064,-0,0.1424,0.2128
0,-0.104,-0,0,-0.104,-0,0,-0.104,-0,0,-0.104,-0,0,-0.104,-0,0,-0.104,-0,0.1424,0.2128
-0.192,0.04,-0.82759,0.2,0.344,1.3889,0.104,0.208,1,0,0.104,0,0,0.104,0,0,0.104,0,0.1824,0.32
0.296,0.424,2.3125,0.096,0.16,1.5,0,0.064,0,0,0.064,0,0,0.064,0,0,0.064,0,0.1728,0.4656
0.048,0.08,1.5,0,0.032,0,0,0.032,0,0,0.032,0,0,0.032,0,0,0.032,0,0.144,0.2992
0.32,0.456,2.3529,0.096,0.168,1.3333,0.064,0.12,1.1429,0,0.056,0,0,0.056,0,0,0.056,0,0.176,0.1584
0,0.136,0,0.096,0.168,1.3333,0.064,0.12,1.1429,0,0.056,0,0,0.056,0,0,0.056,0,0.176,0.1584
0.056,0.128,0.77778,0.016,0.048,0.5,0,0.032,0,0,0.032,0,0,0.032,0,0,0.032,0,0.1696,0.1632
0.208,0.216,26,0.208,0.216,26,0.208,0.216,26,0.152,0.16,19,0.08,0.088,10,0.048,0.048,Inf,0.1152,0.1904
0,0,NaN,0,0,NaN,0,0,NaN,0,0,NaN,0,0,NaN,0,0,NaN,0.0928,0.16
-0.056,0.056,-0.5,-0.056,0.056,-0.5,0.112,0.168,2,0.016,0.024,2,0,0.008,0,0,0.008,0,0.1008,0.1584
0.064,0.104,1.6,0.032,0.056,1.3333,0,0.024,0,0,0.024,0,0,0.024,0,0,0.024,0,0.0928,0.16
0,0.072,0,0,0.072,0,0,0.072,0,0,0.072,0,0,0.072,0,0,0.072,0,0.1184,0.368
0.08,0.048,-2.5,0,-0.032,-0,0,-0.032,-0,0,-0.032,-0,0,-0.032,-0,0,-0.032,-0,-0.3888,0.984
0,0.12,0,0,0.12,0,0,0.12,0,0,0.12,0,0,0.12,0,0,0.12,0,0.248,0.5024
0.224,0.08,-1.5556,0.12,-0.024,-0.83333,0.056,-0.088,-0.38889,0,-0.144,-0,0,-0.144,-0,0,-0.144,-0,-0.512,1.248
0,-0.08,-0,0,-0.08,-0,0,-0.08,-0,0,-0.08,-0,0,-0.08,-0,0,-0.08,-0,-0.3904,0.984
0.28,0.224,-5,0.184,0.128,-3.2857,0.12,0.064,-2.1429,0,-0.056,-0,0,-0.056,-0,0,-0.056,-0,-0.528,1.3088
0.184,0.288,1.7692,0.064,0.104,1.6,0,0.04,0,0,0.04,0,0,0.04,0,0,0.04,0,0.256,0.5152
0.232,0.344,2.0714,0.12,0.184,1.875,0.048,0.072,2,0,0.024,0,0,0.024,0,0,0.024,0,0.2528,0.536
0.192,0.352,1.2,0.128,0.224,1.3333,0,0.096,0,0,0.096,0,0,0.096,0,0,0.096,0,0.384,0.3952
0.112,0.264,0.73684,0.064,0.136,0.88889,0,0.072,0,0,0.072,0,0,0.072,0,0,0.072,0,0.3312,0.1808
0.168,0.272,1.6154,0.112,0.168,2,0.024,0.04,1.5,0,0.016,0,0,0.016,0,0,0.016,0,0.2352,0.4272
0.128,-0.312,-0.29091,0,-0.44,-0,0,-0.44,-0,0,-0.44,-0,0,-0.44,-0,0,-0.44,-0,-0.3808,0.9136
0.136,0.304,0.80952,0.04,0.08,1,0,0.04,0,0,0.04,0,0,0.04,0,0,0.04,0,0.344,0.3664
0.096,-0.376,-0.20339,0,-0.472,-0,0,-0.472,-0,0,-0.472,-0,0,-0.472,-0,0,-0.472,-0,-0.304,0.8576
0.208,0.496,0.72222,0.16,0.376,0.74074,0.128,0.312,0.69565,0.064,0.152,0.72727,0,0.088,0,0,0.088,0,0.3296,0.28
0.088,0.176,1,0,0.088,0,0,0.088,0,0,0.088,0,0,0.088,0,0,0.088,0,0.3328,0.2928
0.776,0.68,-8.0833,0.192,0.096,-2,0.152,0.056,-1.5833,0.072,-0.024,-0.75,0,-0.096,-0,0,-0.096,-0,-0.2784,0.8528
0.2,0.072,-1.5625,0.12,-0.008,-0.9375,0.056,-0.072,-0.4375,0,-0.128,-0,0,-0.128,-0,0,-0.128,-0,-0.3456,0.9392
0,0.288,0,0,0.288,0,0,0.288,0,0,0.288,0,0,0.288,0,0,0.288,0,0.168,0.3104
0.12,-0.08,-0.6,0,-0.2,-0,0,-0.2,-0,0,-0.2,-0,0,-0.2,-0,0,-0.2,-0,-0.3408,0.8912
0.112,0.176,1.75,0,0.064,0,0,0.064,0,0,0.064,0,0,0.064,0,0,0.064,0,0.2144,0.3584
0,0.016,0,0,0.016,0,0,0.016,0,0,0.016,0,0,0.016,0,0,0.016,0,0.1776,0.2592
0.16,-0.112,-0.58824,0.072,-0.2,-0.26471,0.024,-0.248,-0.088235,0,-0.272,-0,0,-0.272,-0,0,-0.272,-0,-0.3584,0.9648
0.176,0.32,1.2222,0.096,0.192,1,0.056,0.112,1,0,0.056,0,0,0.056,0,0,0.056,0,0.264,0.3584
0.032,0.056,1.3333,0,0.024,0,0,0.024,0,0,0.024,0,0,0.024,0,0,0.024,0,0.2592,0.3584
0.112,0.216,1.0769,0.04,0.08,1,0,0.04,0,0,0.04,0,0,0.04,0,0,0.04,0,0.2512,0.3632
0.064,0.112,1.3333,0,0.048,0,0,0.048,0,0,0.048,0,0,0.048,0,0,0.048,0,0.1792,0.4016
0.152,0.224,2.1111,0.056,0.08,2.3333,0,0.024,0,0,0.024,0,0,0.024,0,0,0.024,0,0.2736,0.392
0.136,0.248,1.2143,0.064,0.12,1.1429,0,0.056,0,0,0.056,0,0,0.056,0,0,0.056,0,0.2784,0.3952
0.144,-0.16,-0.47368,0.064,-0.24,-0.21053,0,-0.304,-0,0,-0.304,-0,0,-0.304,-0,0,-0.304,-0,-0.4272,1.1648
0.232,0.352,1.9333,0.136,0.216,1.7,0.088,0.144,1.5714,0,0.056,0,0,0.056,0,0,0.056,0,0.2192,0.4464
0,-0.456,-0,0,-0.456,-0,0,-0.456,-0,0,-0.456,-0,0,-0.456,-0,0,-0.456,-0,-0.4528,1.2192
0.096,0.168,1.3333,0.048,0.08,1.5,0,0.032,0,0,0.032,0,0,0.032,0,0,0.032,0,0.1728,0.3712
0.048,-0.104,-0.31579,0,-0.152,-0,0,-0.152,-0,0,-0.152,-0,0,-0.152,-0,0,-0.152,-0,-0.3696,0.9264
0,0.152,0,0,0.152,0,0,0.152,0,0,0.152,0,0,0.152,0,0,0.152,0,0.1744,0.3856
0.112,0.192,1.4,0.04,0.064,1.6667,0,0.024,0,0,0.024,0,0,0.024,0,0,0.024,0,0.168,0.4032
0.064,-0.368,-0.14815,0,-0.432,-0,0,-0.432,-0,0,-0.432,-0,0,-0.432,-0,0,-0.432,-0,-0.4112,1.0032
0.072,0.136,1.125,0,0.064,0,0,0.064,0,0,0.064,0,0,0.064,0,0,0.064,0,0.1696,0.3968
0.192,0.288,2,0.088,0.152,1.375,0.056,0.096,1.4,0,0.04,0,0,0.04,0,0,0.04,0,0.1696,0.392
0.056,0.104,1.1667,0,0.048,0,0,0.048,0,0,0.048,0,0,0.048,0,0,0.048,0,0.1968,0.3936
0.136,0.216,1.7,0.048,0.08,1.5,0,0.032,0,0,0.032,0,0,0.032,0,0,0.032,0,0.136,0.3136
0.24,0.376,1.7647,0.136,0.232,1.4167,0.088,0.152,1.375,0,0.064,0,0,0.064,0,0,0.064,0,0.184,0.3552
0.136,-0.408,-0.25,0.048,-0.496,-0.088235,0,-0.544,-0,0,-0.544,-0,0,-0.544,-0,0,-0.544,-0,-0.3776,0.92
0.088,0.16,1.2222,0,0.072,0,0,0.072,0,0,0.072,0,0,0.072,0,0,0.072,0,0.2736,0.3664
0.096,0.168,1.3333,0,0.072,0,0,0.072,0,0,0.072,0,0,0.072,0,0,0.072,0,0.3248,0.4096
0.192,0.312,1.6,0.056,0.112,1,0,0.056,0,0,0.056,0,0,0.056,0,0,0.056,0,0.1344,0.5472
0.088,-0.648,-0.11957,0,-0.736,-0,0,-0.736,-0,0,-0.736,-0,0,-0.736,-0,0,-0.736,-0,-0.696,1.5472
0,-0.6,-0,0,-0.6,-0,0,-0.6,-0,0,-0.6,-0,0,-0.6,-0,0,-0.6,-0,0.2176,0.456
0.112,-0.656,-0.14583,0.056,-0.712,-0.072917,0,-0.768,-0,0,-0.768,-0,0,-0.768,-0,0,-0.768,-0,-0.4896,1.1728
0,-0.144,-0,0,-0.144,-0,0,-0.144,-0,0,-0.144,-0,0,-0.144,-0,0,-0.144,-0,0.2272,0.512
0,-0.8,-0,0,-0.8,-0,0,-0.8,-0,0,-0.8,-0,0,-0.8,-0,0,-0.8,-0,-0.2384,0.6288
0.064,0.104,1.6,0,0.04,0,0,0.04,0,0,0.04,0,0,0.04,0,0,0.04,0,0.1248,0.2432
0.096,0.168,1.3333,0.056,0.096,1.4,0.024,0.048,1,0,0.024,0,0,0.024,0,0,0.024,0,0.128,0.3104
0.096,-0.256,-0.27273,0.048,-0.304,-0.13636,0,-0.352,-0,0,-0.352,-0,0,-0.352,-0,0,-0.352,-0,-0.2736,0.6672
0,-0.304,-0,0,-0.304,-0,0,-0.304,-0,0,-0.304,-0,0,-0.304,-0,0,-0.304,-0,-0.184,0.4752
0.112,-0.272,-0.29167,0.056,-0.328,-0.14583,0,-0.384,-0,0,-0.384,-0,0,-0.384,-0,0,-0.384,-0,-0.3168,0.8736
-0.16,-0.12,-4,-0.16,-0.12,-4,-0.16,-0.12,-4,-0.16,-0.12,-4,0.16,0.2,4,0.088,0.128,2.2,0.112,0.3728
0.088,0.128,2.2,0.088,0.128,2.2,0.088,0.128,2.2,0.088,0.128,2.2,0.16,0.2,4,0.088,0.128,2.2,0.112,0.3728
-0.424,-0.264,-2.65,-0.424,-0.264,-2.65,-0.424,-0.264,-2.65,-0.424,-0.264,-2.65,-0.424,-0.264,-2.65,0.256,0.368,2.2857,0.1808,0.448
0.856,0.368,-1.7541,0.856,0.368,-1.7541,0.856,0.368,-1.7541,0.464,-0.024,-0.95082,0.072,-0.416,-0.14754,0,-0.488,-0,-0.2288,0.5696
0.12,-0.392,-0.23438,0.08,-0.432,-0.15625,0.056,-0.456,-0.10938,0,-0.512,-0,0,-0.512,-0,0,-0.512,-0,-0.2672,0.6992
0.096,-0.368,-0.2069,0.056,-0.408,-0.12069,0.032,-0.432,-0.068966,0,-0.464,-0,0,-0.464,-0,0,-0.464,-0,-0.1792,0.4752
0.12,0.224,1.1538,0.048,0.096,1,0,0.048,0,0,0.048,0,0,0.048,0,0,0.048,0,0.1088,0.1872
0.144,0.224,1.8,0.04,0.064,1.6667,0,0.024,0,0,0.024,0,0,0.024,0,0,0.024,0,0.096,0.2
0.496,0.376,-4.1333,0.192,0.072,-1.6,0.12,0,-1,0.056,-0.064,-0.46667,0,-0.12,-0,0,-0.12,-0,-0.2304,0.5344
0,0.088,0,0,0.088,0,0,0.088,0,0,0.088,0,0,0.088,0,0,0.088,0,0.072,0.1392
0,0.248,0,0,0.248,0,0,0.248,0,0,0.248,0,0,0.248,0,0,0.248,0,0.1152,0.16
0,0.088,0,0,0.088,0,0,0.088,0,0,0.088,0,0,0.088,0,0,0.088,0,0.1184,0.1552
0.128,0.184,2.2857,0.056,0.112,1,0,0.056,0,0,0.056,0,0,0.056,0,0,0.056,0,0.0576,0.184
0,-0.104,-0,0,-0.104,-0,0,-0.104,-0,0,-0.104,-0,0,-0.104,-0,0,-0.104,-0,-0.2,0.5488
0.144,0.24,1.5,0.088,0.16,1.2222,0.056,0.104,1.1667,0,0.048,0,0,0.048,0,0,0.048,0,0.144,0.3952
0,-0.152,-0,0,-0.152,-0,0,-0.152,-0,0,-0.152,-0,0,-0.152,-0,0,-0.152,-0,0.208,0.3312
0,-0.152,-0,0,-0.152,-0,0,-0.152,-0,0,-0.152,-0,0,-0.152,-0,0,-0.152,-0,0.208,0.3312
0.152,-0.208,-0.42222,0.096,-0.264,-0.26667,0.064,-0.296,-0.17778,0,-0.36,-0,0,-0.36,-0,0,-0.36,-0,-0.4272,0.9792
0,-0.192,-0,0,-0.192,-0,0,-0.192,-0,0,-0.192,-0,0,-0.192,-0,0,-0.192,-0,0.1184,0.2032
0,-0.4,-0,0,-0.4,-0,0,-0.4,-0,0,-0.4,-0,0,-0.4,-0,0,-0.4,-0,-0.2272,0.6176
0,-0.224,-0,0,-0.224,-0,0,-0.224,-0,0,-0.224,-0,0,-0.224,-0,0,-0.224,-0,-0.3392,0.9808
0.104,-0.224,-0.31707,0,-0.328,-0,0,-0.328,-0,0,-0.328,-0,0,-0.328,-0,0,-0.328,-0,-0.32,0.7312
0,-0.256,-0,0,-0.256,-0,0,-0.256,-0,0,-0.256,-0,0,-0.256,-0,0,-0.256,-0,-0.2256,0.7056
0.152,-0.24,-0.38776,0.064,-0.328,-0.16327,0,-0.392,-0,0,-0.392,-0,0,-0.392,-0,0,-0.392,-0,-0.3152,0.8096
0.144,-0.2,-0.4186,0.048,-0.296,-0.13953,0,-0.344,-0,0,-0.344,-0,0,-0.344,-0,0,-0.344,-0,-0.4256,1.128
0,-0.096,-0,0,-0.096,-0,0,-0.096,-0,0,-0.096,-0,0,-0.096,-0,0,-0.096,-0,0.1984,0.4608
0.136,-0.24,-0.3617,0,-0.376,-0,0,-0.376,-0,0,-0.376,-0,0,-0.376,-0,0,-0.376,-0,-0.4288,1.1232
-0.384,-0.096,-1.3333,0.12,0.144,5,0.04,0.056,2.5,0,0.016,0,0,0.016,0,0,0.016,0,0.152,0.3152
0,-0.344,-0,0,-0.344,-0,0,-0.344,-0,0,-0.344,-0,0,-0.344,-0,0,-0.344,-0,0.1184,0.3184
0.056,0.088,1.75,0,0.032,0,0,0.032,0,0,0.032,0,0,0.032,0,0,0.032,0,0.088,0.1888
0.112,-0.152,-0.42424,0,-0.264,-0,0,-0.264,-0,0,-0.264,-0,0,-0.264,-0,0,-0.264,-0,-0.288,0.6
0,-0.192,-0,0,-0.192,-0,0,-0.192,-0,0,-0.192,-0,0,-0.192,-0,0,-0.192,-0,0.0864,0.1168
0.2,0.272,2.7778,0.168,0.224,3,0.136,0.176,3.4,0,0.04,0,0,0.04,0,0,0.04,0,0.1024,0.3056
0.064,0.088,2.6667,0,0.024,0,0,0.024,0,0,0.024,0,0,0.024,0,0,0.024,0,-0.4112,0.9664
0.176,0.12,-3.1429,0.112,0.056,-2,0.04,-0.016,-0.71429,0,-0.056,-0,0,-0.056,-0,0,-0.056,-0,-0.4128,0.928
0,0.024,0,0,0.024,0,0,0.024,0,0,0.024,0,0,0.024,0,0,0.024,0,0.1536,0.3008
0,0.024,0,0,0.024,0,0,0.024,0,0,0.024,0,0,0.024,0,0,0.024,0,0.0976,0.3056
0,0.032,0,0,0.032,0,0,0.032,0,0,0.032,0,0,0.032,0,0,0.032,0,0.096,0.192
0.2,0.272,2.7778,0.16,0.208,3.3333,0.08,0.112,2.5,0,0.032,0,0,0.032,0,0,0.032,0,0.1152,0.424
0.184,0.248,2.875,0,0.064,0,0,0.064,0,0,0.064,0,0,0.064,0,0,0.064,0,0.1008,0.2688
0.144,-0.256,-0.36,0.048,-0.352,-0.12,0,-0.4,-0,0,-0.4,-0,0,-0.4,-0,0,-0.4,-0,-0.3952,0.8992
-0.072,-0.032,-1.8,0,0.04,0,0,0.04,0,0,0.04,0,0,0.04,0,0,0.04,0,0.104,0.4176
0,0.208,0,0,0.208,0,0,0.208,0,0,0.208,0,0,0.208,0,0,0.208,0,0.0816,0.3104
0.088,0.16,1.2222,0.04,0.112,0.55556,0,0.072,0,0,0.072,0,0,0.072,0,0,0.072,0,-0.1824,0.4512
0.088,0.16,1.2222,0.04,0.112,0.55556,0,0.072,0,0,0.072,0,0,0.072,0,0,0.072,0,-0.1824,0.4512
0,0.048,0,0,0.048,0,0,0.048,0,0,0.048,0,0,0.048,0,0,0.048,0,0.0912,0.0736
0,0.104,0,0,0.104,0,0,0.104,0,0,0.104,0,0,0.104,0,0,0.104,0,0.1456,0.1872
0.096,0.152,1.7143,0.048,0.088,1.2,0.016,0.032,1,0,0.016,0,0,0.016,0,0,0.016,0,0.1136,0.184
0.016,0.016,Inf,0.144,0.144,Inf,0.104,0.104,Inf,0.032,0.032,Inf,0,0,NaN,0,0,NaN,-0.184,0.4432
0,0.024,0,0,0.024,0,0,0.024,0,0,0.024,0,0,0.024,0,0,0.024,0,0.1328,0.1568
0,0.24,0,0,0.24,0,0,0.24,0,0,0.24,0,0,0.24,0,0,0.24,0,0.1264,0.1632
0,0.04,0,0,0.04,0,0,0.04,0,0,0.04,0,0,0.04,0,0,0.04,0,0.1008,0.152
-0.152,0.072,-0.67857,-0.152,0.072,-0.67857,0.192,0.416,0.85714,0.04,0.056,2.5,0,0.016,0,0,0.016,0,0.1632,0.4624
0.144,-0.08,-0.64286,0.096,-0.128,-0.42857,0.072,-0.152,-0.32143,0,-0.224,-0,0,-0.224,-0,0,-0.224,-0,-0.3312,0.7968
0.056,-0.072,-0.4375,0,-0.128,-0,0,-0.128,-0,0,-0.128,-0,0,-0.128,-0,0,-0.128,-0,-0.2944,0.6496
0.152,0.224,2.1111,0.08,0.128,1.6667,0.04,0.064,1.6667,0,0.024,0,0,0.024,0,0,0.024,0,0.1584,0.56
0.344,0.024,-1.075,0.344,0.024,-1.075,0.344,0.024,-1.075,0.104,-0.216,-0.325,0,-0.32,-0,0,-0.32,-0,-0.3264,0.7328
0.136,-0.176,-0.4359,0.08,-0.232,-0.25641,0.04,-0.272,-0.12821,0,-0.312,-0,0,-0.312,-0,0,-0.312,-0,-0.3104,0.624
0.064,-0.304,-0.17391,0,-0.368,-0,0,-0.368,-0,0,-0.368,-0,0,-0.368,-0,0,-0.368,-0,-0.4256,1.0336
0,-0.376,-0,0,-0.376,-0,0,-0.376,-0,0,-0.376,-0,0,-0.376,-0,0,-0.376,-0,0.0736,0.344
0.112,0.168,2,0.056,0.088,1.75,0,0.032,0,0,0.032,0,0,0.032,0,0,0.032,0,0.152,0.648
0,0.312,0,0,0.312,0,0,0.312,0,0,0.312,0,0,0.312,0,0,0.312,0,0.2784,0.568
0.104,-0.072,-0.59091,0,-0.176,-0,0,-0.176,-0,0,-0.176,-0,0,-0.176,-0,0,-0.176,-0,-0.5968,1.4064
0.096,0.168,1.3333,0.032,0.056,1.3333,0,0.024,0,0,0.024,0,0,0.024,0,0,0.024,0,0.192,0.6032
0.104,0.176,1.4444,0.048,0.088,1.2,0,0.04,0,0,0.04,0,0,0.04,0,0,0.04,0,0.1552,0.3408
0.296,0.424,2.3125,0.056,0.104,1.1667,0,0.048,0,0,0.048,0,0,0.048,0,0,0.048,0,0.1984,0.5088
0.048,-0.088,-0.35294,0,-0.136,-0,0,-0.136,-0,0,-0.136,-0,0,-0.136,-0,0,-0.136,-0,-0.512,1.2096
0,0.288,0,0,0.288,0,0,0.288,0,0,0.288,0,0,0.288,0,0,0.288,0,0.1616,0.4672
0.208,0.208,Inf,0.112,0.112,Inf,0.08,0.08,Inf,0,0,NaN,0,0,NaN,0,0,NaN,-0.4272,1.0192
0,0.376,0,0,0.376,0,0,0.376,0,0,0.376,0,0,0.376,0,0,0.376,0,0.1248,0.1392
0.048,0.232,0.26087,0.2,0.304,1.9231,0.136,0.208,1.8889,0,0.072,0,0,0.072,0,0,0.072,0,0.176,0.5984
0,-0.304,-0,0,-0.304,-0,0,-0.304,-0,0,-0.304,-0,0,-0.304,-0,0,-0.304,-0,0.112,0.192
0,-0.192,-0,0,-0.192,-0,0,-0.192,-0,0,-0.192,-0,0,-0.192,-0,0,-0.192,-0,0.1136,0.192
0.016,0.224,0.076923,0.016,0.224,0.076923,0.016,0.224,0.076923,0.016,0.224,0.076923,0,0.208,0,0,0.208,0,0.16,0.192
0,0.088,0,0,0.088,0,0,0.088,0,0,0.088,0,0,0.088,0,0,0.088,0,-0.1472,0.448
0,-0.016,-0,0,-0.016,-0,0,-0.016,-0,0,-0.016,-0,0,-0.016,-0,0,-0.016,-0,-0.136,0.4096
0.04,0.136,0.41667,0,0.096,0,0,0.096,0,0,0.096,0,0,0.096,0,0,0.096,0,-0.1104,0.3328
0.04,0.136,0.41667,0,0.096,0,0,0.096,0,0,0.096,0,0,0.096,0,0,0.096,0,-0.1584,0.5168
0,0.176,0,0,0.176,0,0,0.176,0,0,0.176,0,0,0.176,0,0,0.176,0,0.1376,0.128
0,0.048,0,0,0.048,0,0,0.048,0,0,0.048,0,0,0.048,0,0,0.048,0,0.0992,0.16
0,0.024,0,0,0.024,0,0,0.024,0,0,0.024,0,0,0.024,0,0,0.024,0,-0.2528,0.5952
0,0.144,0,0,0.144,0,0,0.144,0,0,0.144,0,0,0.144,0,0,0.144,0,0.1184,0.176
0,0.24,0,0,0.24,0,0,0.24,0,0,0.24,0,0,0.24,0,0,0.24,0,0.112,0.1792
0.072,0.112,1.8,0.04,0.064,1.6667,0,0.024,0,0,0.024,0,0,0.024,0,0,0.024,0,0.136,0.1728
0,-0.104,-0,0,-0.104,-0,0,-0.104,-0,0,-0.104,-0,0,-0.104,-0,0,-0.104,-0,-0.1664,0.4688
-0.064,-0.104,1.6,0.44,0.4,-11,0,-0.04,-0,0,-0.04,-0,0,-0.04,-0,0,-0.04,-0,-0.1824,0.4688
-0.072,0.064,-0.52941,-0.072,0.064,-0.52941,-0.072,0.064,-0.52941,-0.072,0.064,-0.52941,-0.072,0.064,-0.52941,0.104,0.152,2.1667,0.0896,0.3056
0,0.064,0,0,0.064,0,0,0.064,0,0,0.064,0,0,0.064,0,0,0.064,0,0.1056,0.3248
0.08,0.12,2,0.024,0.032,3,0,0.008,0,0,0.008,0,0,0.008,0,0,0.008,0,0.1184,0.2304
0,-0.056,-0,0,-0.056,-0,0,-0.056,-0,0,-0.056,-0,0,-0.056,-0,0,-0.056,-0,-0.1408,0.384
0.16,0.264,1.5385,0.08,0.136,1.4286,0.04,0.072,1.25,0,0.032,0,0,0.032,0,0,0.032,0,0.128,0.224
0.12,0.032,-1.3636,0.056,-0.032,-0.63636,0,-0.088,-0,0,-0.088,-0,0,-0.088,-0,0,-0.088,-0,-0.4672,1.0976
0.056,0.024,-1.75,0,-0.032,-0,0,-0.032,-0,0,-0.032,-0,0,-0.032,-0,0,-0.032,-0,-0.2288,0.6192
0,-0.072,-0,0,-0.072,-0,0,-0.072,-0,0,-0.072,-0,0,-0.072,-0,0,-0.072,-0,-0.4128,0.952
0,0.024,0,0,0.024,0,0,0.024,0,0,0.024,0,0,0.024,0,0,0.024,0,-0.1552,0.5328
0,0.056,0,0,0.056,0,0,0.056,0,0,0.056,0,0,0.056,0,0,0.056,0,0.1504,0.2176
0.104,0.16,1.8571,0.04,0.064,1.6667,0,0.024,0,0,0.024,0,0,0.024,0,0,0.024,0,0.1312,0.296
0.112,0.184,1.5556,0.08,0.128,1.6667,0.048,0.08,1.5,0,0.032,0,0,0.032,0,0,0.032,0,0.1552,0.4304
0,-0.36,-0,0,-0.36,-0,0,-0.36,-0,0,-0.36,-0,0,-0.36,-0,0,-0.36,-0,0.1024,0.2608
0,-0.208,-0,0,-0.208,-0,0,-0.208,-0,0,-0.208,-0,0,-0.208,-0,0,-0.208,-0,0.1488,0.4544
0.088,0.144,1.5714,0,0.056,0,0,0.056,0,0,0.056,0,0,0.056,0,0,0.056,0,0.1184,0.3328
0,-0.264,-0,0,-0.264,-0,0,-0.264,-0,0,-0.264,-0,0,-0.264,-0,0,-0.264,-0,0.0944,0.2784
0,-0.344,-0,0,-0.344,-0,0,-0.344,-0,0,-0.344,-0,0,-0.344,-0,0,-0.344,-0,0.1168,0.3488
0.064,0.16,0.66667,0.016,0.016,Inf,0,0,NaN,0,0,NaN,0,0,NaN,0,0,NaN,0.1152,0.3216
0,-0.304,-0,0,-0.304,-0,0,-0.304,-0,0,-0.304,-0,0,-0.304,-0,0,-0.304,-0,0.1024,0.2752
0.088,0.144,1.5714,0,0.056,0,0,0.056,0,0,0.056,0,0,0.056,0,0,0.056,0,0.1152,0.2448
0,-0.024,-0,0,-0.024,-0,0,-0.024,-0,0,-0.024,-0,0,-0.024,-0,0,-0.024,-0,0.1344,0.3664
0.136,-0.056,-0.70833,0.088,-0.104,-0.45833,0.056,-0.136,-0.29167,0,-0.192,-0,0,-0.192,-0,0,-0.192,-0,-0.4592,1.0656
0.072,0.112,1.8,0,0.04,0,0,0.04,0,0,0.04,0,0,0.04,0,0,0.04,0,0.088,0.2256
0.112,0.2,1.2727,0.072,0.128,1.2857,0.016,0.032,1,0,0.016,0,0,0.016,0,0,0.016,0,0.1408,0.2496
-0.408,0.016,-0.96226,-0.408,0.016,-0.96226,0.336,0.76,0.79245,0.12,0.544,0.28302,0,0.424,0,0,0.424,0,-0.3312,0.7872
0,0.416,0,0,0.416,0,0,0.416,0,0,0.416,0,0,0.416,0,0,0.416,0,0.112,0.2336
0,-0.12,-0,0,-0.12,-0,0,-0.12,-0,0,-0.12,-0,0,-0.12,-0,0,-0.12,-0,0.0928,0.2448
0.104,-0.016,-0.86667,0.048,-0.072,-0.4,0,-0.12,-0,0,-0.12,-0,0,-0.12,-0,0,-0.12,-0,-0.3232,0.68
0,0.504,0,0,0.504,0,0,0.504,0,0,0.504,0,0,0.504,0,0,0.504,0,0.088,0.1232
0.12,0.04,-1.5,0.072,-0.008,-0.9,0.016,-0.064,-0.2,0,-0.08,-0,0,-0.08,-0,0,-0.08,-0,-0.3344,0.7136
0,-0.168,-0,0,-0.168,-0,0,-0.168,-0,0,-0.168,-0,0,-0.168,-0,0,-0.168,-0,-0.2672,0.6768
0,-0.112,-0,0,-0.112,-0,0,-0.112,-0,0,-0.112,-0,0,-0.112,-0,0,-0.112,-0,-0.3232,0.8976
0.112,-0.024,-0.82353,0.056,-0.08,-0.41176,0,-0.136,-0,0,-0.136,-0,0,-0.136,-0,0,-0.136,-0,-0.2544,0.6128
0.104,-0.04,-0.72222,0.048,-0.096,-0.33333,0,-0.144,-0,0,-0.144,-0,0,-0.144,-0,0,-0.144,-0,-0.2144,0.536
0.088,0.008,-1.1,0.032,-0.048,-0.4,0,-0.08,-0,0,-0.08,-0,0,-0.08,-0,0,-0.08,-0,-0.3008,0.7328
0.112,-0.024,-0.82353,0.056,-0.08,-0.41176,0,-0.136,-0,0,-0.136,-0,0,-0.136,-0,0,-0.136,-0,-0.2752,0.6896
0,0.064,0,0,0.064,0,0,0.064,0,0,0.064,0,0,0.064,0,0,0.064,0,0.1232,0.2416
0,-0.128,-0,0,-0.128,-0,0,-0.128,-0,0,-0.128,-0,0,-0.128,-0,0,-0.128,-0,-0.1264,0.3712
0,0.024,0,0,0.024,0,0,0.024,0,0,0.024,0,0,0.024,0,0,0.024,0,0.0912,0.1216
0,-0.08,-0,0,-0.08,-0,0,-0.08,-0,0,-0.08,-0,0,-0.08,-0,0,-0.08,-0,-0.2672,0.6576
0,0.344,0,0,0.344,0,0,0.344,0,0,0.344,0,0,0.344,0,0,0.344,0,0.112,0.28
0,0.024,0,0,0.024,0,0,0.024,0,0,0.024,0,0,0.024,0,0,0.024,0,0.0768,0.168
0,-0.016,-0,0,-0.016,-0,0,-0.016,-0,0,-0.016,-0,0,-0.016,-0,0,-0.016,-0,0.1312,0.2656
0.112,-0.008,-0.93333,0.048,-0.072,-0.4,0,-0.12,-0,0,-0.12,-0,0,-0.12,-0,0,-0.12,-0,-0.272,0.6512
0,0.152,0,0,0.152,0,0,0.152,0,0,0.152,0,0,0.152,0,0,0.152,0,0.08,0.1584
0,-0.168,-0,0,-0.168,-0,0,-0.168,-0,0,-0.168,-0,0,-0.168,-0,0,-0.168,-0,-0.2944,0.6704
0,-0.08,-0,0,-0.08,-0,0,-0.08,-0,0,-0.08,-0,0,-0.08,-0,0,-0.08,-0,0.08,0.1648
0,-0.152,-0,0,-0.152,-0,0,-0.152,-0,0,-0.152,-0,0,-0.152,-0,0,-0.152,-0,-0.3664,0.7392
0.136,0.048,-1.5455,0.08,-0.008,-0.90909,0,-0.088,-0,0,-0.088,-0,0,-0.088,-0,0,-0.088,-0,-0.4944,1.2144
0.144,0.088,-2.5714,0.096,0.04,-1.7143,0.048,-0.008,-0.85714,0,-0.056,-0,0,-0.056,-0,0,-0.056,-0,-0.3856,0.7968
0,0.424,0,0,0.424,0,0,0.424,0,0,0.424,0,0,0.424,0,0,0.424,0,0.1152,0.2704
0.096,0.056,-2.4,0,-0.04,-0,0,-0.04,-0,0,-0.04,-0,0,-0.04,-0,0,-0.04,-0,-0.28,0.64
0.136,0.136,Inf,0.088,0.088,Inf,0.04,0.04,Inf,0,0,NaN,0,0,NaN,0,0,NaN,-0.2784,0.6384
0,-0.088,-0,0,-0.088,-0,0,-0.088,-0,0,-0.088,-0,0,-0.088,-0,0,-0.088,-0,0.1328,0.3152
0.144,0.256,1.2857,0.096,0.176,1.2,0.064,0.112,1.3333,0,0.048,0,0,0.048,0,0,0.048,0,0.1712,0.4496
0.112,-0.472,-0.19178,0.064,-0.52,-0.10959,0,-0.584,-0,0,-0.584,-0,0,-0.584,-0,0,-0.584,-0,-0.36,0.8512
0.16,-0.24,-0.4,0.112,-0.288,-0.28,0.08,-0.32,-0.2,0,-0.4,-0,0,-0.4,-0,0,-0.4,-0,-0.464,1.0272
0,-0.112,-0,0,-0.112,-0,0,-0.112,-0,0,-0.112,-0,0,-0.112,-0,0,-0.112,-0,0.0928,0.2256
0.112,0.176,1.75,0.056,0.088,1.75,0,0.032,0,0,0.032,0,0,0.032,0,0,0.032,0,0.1312,0.4032
0.104,0.176,1.4444,0.056,0.096,1.4,0,0.04,0,0,0.04,0,0,0.04,0,0,0.04,0,0.1056,0.3536
0,-0.088,-0,0,-0.088,-0,0,-0.088,-0,0,-0.088,-0,0,-0.088,-0,0,-0.088,-0,0.12,0.1248
0,-0.4,-0,0,-0.4,-0,0,-0.4,-0,0,-0.4,-0,0,-0.4,-0,0,-0.4,-0,0.0896,0.2128
0,-0.256,-0,0,-0.256,-0,0,-0.256,-0,0,-0.256,-0,0,-0.256,-0,0,-0.256,-0,0.0992,0.2496
0.104,-0.384,-0.21311,0.032,-0.456,-0.065574,0,-0.488,-0,0,-0.488,-0,0,-0.488,-0,0,-0.488,-0,-0.4352,0.8928
0.112,0.192,1.4,0.056,0.104,1.1667,0,0.048,0,0,0.048,0,0,0.048,0,0,0.048,0,0.0912,0.2352
0,-0.416,-0,0,-0.416,-0,0,-0.416,-0,0,-0.416,-0,0,-0.416,-0,0,-0.416,-0,0.1392,0.4384
0.096,-0.288,-0.25,0,-0.384,-0,0,-0.384,-0,0,-0.384,-0,0,-0.384,-0,0,-0.384,-0,-0.2544,0.592
0,-0.312,-0,0,-0.312,-0,0,-0.312,-0,0,-0.312,-0,0,-0.312,-0,0,-0.312,-0,0.088,0.2784
0,-0.464,-0,0,-0.464,-0,0,-0.464,-0,0,-0.464,-0,0,-0.464,-0,0,-0.464,-0,0.0848,0.2704
0.152,0.248,1.5833,0.096,0.168,1.3333,0.064,0.112,1.3333,0,0.048,0,0,0.048,0,0,0.048,0,0.1648,0.4832
0.168,0.264,1.75,0.112,0.184,1.5556,0.088,0.144,1.5714,0,0.056,0,0,0.056,0,0,0.056,0,0.152,0.5104
0,-0.12,-0,0,-0.12,-0,0,-0.12,-0,0,-0.12,-0,0,-0.12,-0,0,-0.12,-0,0.1264,0.4
0.048,0.08,1.5,0,0.032,0,0,0.032,0,0,0.032,0,0,0.032,0,0,0.032,0,0.1872,0.5024
0.144,0.232,1.6364,0.096,0.152,1.7143,0.04,0.072,1.25,0,0.032,0,0,0.032,0,0,0.032,0,0.1184,0.3376
0.072,0.104,2.25,0,0.032,0,0,0.032,0,0,0.032,0,0,0.032,0,0,0.032,0,0.1264,0.4128
0,-0.152,-0,0,-0.152,-0,0,-0.152,-0,0,-0.152,-0,0,-0.152,-0,0,-0.152,-0,0.0816,0.2576
0,-0.336,-0,0,-0.336,-0,0,-0.336,-0,0,-0.336,-0,0,-0.336,-0,0,-0.336,-0,0.0928,0.2864
0,-0.368,-0,0,-0.368,-0,0,-0.368,-0,0,-0.368,-0,0,-0.368,-0,0,-0.368,-0,0.1504,0.2448
0,-0.432,-0,0,-0.432,-0,0,-0.432,-0,0,-0.432,-0,0,-0.432,-0,0,-0.432,-0,0.0864,0.256
0,-0.08,-0,0,-0.08,-0,0,-0.08,-0,0,-0.08,-0,0,-0.08,-0,0,-0.08,-0,0.1168,0.2832
0.064,0.104,1.6,0,0.04,0,0,0.04,0,0,0.04,0,0,0.04,0,0,0.04,0,0.0912,0.2512
0.104,0.176,1.4444,0.048,0.072,2,0,0.024,0,0,0.024,0,0,0.024,0,0,0.024,0,0.1216,0.2976
0,-0.184,-0,0,-0.184,-0,0,-0.184,-0,0,-0.184,-0,0,-0.184,-0,0,-0.184,-0,-0.168,0.5216
0.08,0.136,1.4286,0,0.056,0,0,0.056,0,0,0.056,0,0,0.056,0,0,0.056,0,0.0976,0.2192
0,-0.16,-0,0,-0.16,-0,0,-0.16,-0,0,-0.16,-0,0,-0.16,-0,0,-0.16,-0,-0.1904,0.6144
0,0.352,0,0,0.352,0,0,0.352,0,0,0.352,0,0,0.352,0,0,0.352,0,0.1024,0.1792
0,0.248,0,0,0.248,0,0,0.248,0,0,0.248,0,0,0.248,0,0,0.248,0,0.112,0.1888
0,0.04,0,0,0.04,0,0,0.04,0,0,0.04,0,0,0.04,0,0,0.04,0,0.2432,0.3264
0.128,0.136,16,0.08,0.088,10,0.04,0.048,5,0,0.008,0,0,0.008,0,0,0.008,0,-0.5744,1.336
0,0.32,0,0,0.32,0,0,0.32,0,0,0.32,0,0,0.32,0,0,0.32,0,0.0928,0.2224
0,0.328,0,0,0.328,0,0,0.328,0,0,0.328,0,0,0.328,0,0,0.328,0,0.1168,0.2048
0.112,0.008,-1.0769,0.032,-0.072,-0.30769,0,-0.104,-0,0,-0.104,-0,0,-0.104,-0,0,-0.104,-0,-0.2192,0.4832
0,-0.168,-0,0,-0.168,-0,0,-0.168,-0,0,-0.168,-0,0,-0.168,-0,0,-0.168,-0,-0.1872,0.5424
0,-0.112,-0,0,-0.112,-0,0,-0.112,-0,0,-0.112,-0,0,-0.112,-0,0,-0.112,-0,0.1248,0.1888
0,-0.104,-0,0,-0.104,-0,0,-0.104,-0,0,-0.104,-0,0,-0.104,-0,0,-0.104,-0,0.1056,0.2352
0,-0.128,-0,0,-0.128,-0,0,-0.128,-0,0,-0.128,-0,0,-0.128,-0,0,-0.128,-0,-0.2144,0.4672
0.128,-0.008,-0.94118,0.088,-0.048,-0.64706,0.032,-0.104,-0.23529,0,-0.136,-0,0,-0.136,-0,0,-0.136,-0,-0.3072,0.7168
0,0.192,0,0,0.192,0,0,0.192,0,0,0.192,0,0,0.192,0,0,0.192,0,0.1728,0.3808
0.168,0,-1,0.112,-0.056,-0.66667,0.072,-0.096,-0.42857,0,-0.168,-0,0,-0.168,-0,0,-0.168,-0,-0.2704,0.672
0,0.48,0,0,0.48,0,0,0.48,0,0,0.48,0,0,0.48,0,0,0.48,0,0.128,0.1712
0,-0.08,-0,0,-0.08,-0,0,-0.08,-0,0,-0.08,-0,0,-0.08,-0,0,-0.08,-0,0.0992,0.2688
0,0.032,0,0,0.032,0,0,0.032,0,0,0.032,0,0,0.032,0,0,0.032,0,0.1136,0.2688
0.08,0.128,1.6667,0,0.048,0,0,0.048,0,0,0.048,0,0,0.048,0,0,0.048,0,0.16,0.4496
0.12,-0.248,-0.32609,0.064,-0.304,-0.17391,0,-0.368,-0,0,-0.368,-0,0,-0.368,-0,0,-0.368,-0,-0.3344,0.68
0,-0.032,-0,0,-0.032,-0,0,-0.032,-0,0,-0.032,-0,0,-0.032,-0,0,-0.032,-0,0.1056,0.2304
0.056,0.088,1.75,0,0.032,0,0,0.032,0,0,0.032,0,0,0.032,0,0,0.032,0,0.0864,0.2112
0.112,-0.184,-0.37838,0.032,-0.264,-0.10811,0,-0.296,-0,0,-0.296,-0,0,-0.296,-0,0,-0.296,-0,-0.2272,0.4448
0.112,0.176,1.75,0.04,0.064,1.6667,0,0.024,0,0,0.024,0,0,0.024,0,0,0.024,0,0.1136,0.3488
0,0.512,0,0,0.512,0,0,0.512,0,0,0.512,0,0,0.512,0,0,0.512,0,0.0816,0.1184
0.104,0.224,0.86667,0,0.12,0,0,0.12,0,0,0.12,0,0,0.12,0,0,0.12,0,-0.232,0.4592
0.112,0.168,2,0.056,0.088,1.75,0,0.032,0,0,0.032,0,0,0.032,0,0,0.032,0,0.0912,0.2496
0,0.04,0,0,0.04,0,0,0.04,0,0,0.04,0,0,0.04,0,0,0.04,0,-0.3424,0.92
0.136,0.2,2.125,0.064,0.104,1.6,0,0.04,0,0,0.04,0,0,0.04,0,0,0.04,0,0.1616,0.3456
0.112,-0.168,-0.4,0.048,-0.232,-0.17143,0,-0.28,-0,0,-0.28,-0,0,-0.28,-0,0,-0.28,-0,-0.3072,0.6128
0,-0.096,-0,0,-0.096,-0,0,-0.096,-0,0,-0.096,-0,0,-0.096,-0,0,-0.096,-0,0.1152,0.3328
0,-0.384,-0,0,-0.384,-0,0,-0.384,-0,0,-0.384,-0,0,-0.384,-0,0,-0.384,-0,-0.3808,0.9024
0,-0.36,-0,0,-0.36,-0,0,-0.36,-0,0,-0.36,-0,0,-0.36,-0,0,-0.36,-0,-0.2624,0.592
0.112,0.176,1.75,0,0.064,0,0,0.064,0,0,0.064,0,0,0.064,0,0,0.064,0,0.1568,0.3072
0.112,0.184,1.5556,0.048,0.08,1.5,0,0.032,0,0,0.032,0,0,0.032,0,0,0.032,0,0.192,0.3216
0.032,-0.184,-0.14815,0,-0.216,-0,0,-0.216,-0,0,-0.216,-0,0,-0.216,-0,0,-0.216,-0,-0.1712,0.4768
0,-0.032,-0,0,-0.032,-0,0,-0.032,-0,0,-0.032,-0,0,-0.032,-0,0,-0.032,-0,0.1984,0.4976
0.112,0.176,1.75,0.048,0.08,1.5,0,0.032,0,0,0.032,0,0,0.032,0,0,0.032,0,0.2384,0.4432
0.024,0.04,1.5,0,0.016,0,0,0.016,0,0,0.016,0,0,0.016,0,0,0.016,0,0.112,0.2096
0,-0.552,-0,0,-0.552,-0,0,-0.552,-0,0,-0.552,-0,0,-0.552,-0,0,-0.552,-0,-0.2896,0.5856
0,-0.496,-0,0,-0.496,-0,0,-0.496,-0,0,-0.496,-0,0,-0.496,-0,0,-0.496,-0,0.1504,0.3536
0,-0.176,-0,0,-0.176,-0,0,-0.176,-0,0,-0.176,-0,0,-0.176,-0,0,-0.176,-0,0.1184,0.3584
1.104,0.408,-1.5862,1.032,0.336,-1.4828,0.968,0.272,-1.3908,0.168,-0.528,-0.24138,0.04,-0.656,-0.057471,0,-0.696,-0,-0.4,0.8256
0,-0.496,-0,0,-0.496,-0,0,-0.496,-0,0,-0.496,-0,0,-0.496,-0,0,-0.496,-0,0.1584,0.392
0.112,-0.384,-0.22581,0,-0.496,-0,0,-0.496,-0,0,-0.496,-0,0,-0.496,-0,0,-0.496,-0,-0.3696,0.76
0,-0.76,-0,0,-0.76,-0,0,-0.76,-0,0,-0.76,-0,0,-0.76,-0,0,-0.76,-0,-0.1456,0.488
0,-0.384,-0,0,-0.384,-0,0,-0.384,-0,0,-0.384,-0,0,-0.384,-0,0,-0.384,-0,0.1216,0.3776
0,-0.408,-0,0,-0.408,-0,0,-0.408,-0,0,-0.408,-0,0,-0.408,-0,0,-0.408,-0,0.12,0.208
0,-0.36,-0,0,-0.36,-0,0,-0.36,-0,0,-0.36,-0,0,-0.36,-0,0,-0.36,-0,0.1152,0.2144
0,-0.632,-0,0,-0.632,-0,0,-0.632,-0,0,-0.632,-0,0,-0.632,-0,0,-0.632,-0,0.0832,0.2608
0.136,0.192,2.4286,0.064,0.096,2,0,0.032,0,0,0.032,0,0,0.032,0,0,0.032,0,0.088,0.2272
0.12,0.176,2.1429,0.048,0.072,2,0,0.024,0,0,0.024,0,0,0.024,0,0,0.024,0,0.096,0.3536
0.28,0.384,2.6923,0.28,0.384,2.6923,0.28,0.384,2.6923,0,0.104,0,0,0.104,0,0,0.104,0,0.1184,0.2912
0.144,0.2,2.5714,0.064,0.096,2,0,0.032,0,0,0.032,0,0,0.032,0,0,0.032,0,0.0832,0.2288
0,0.336,0,0,0.336,0,0,0.336,0,0,0.336,0,0,0.336,0,0,0.336,0,0.0656,0.1472
0.144,0.104,-3.6,0.096,0.056,-2.4,0.04,0,-1,0,-0.04,-0,0,-0.04,-0,0,-0.04,-0,-0.4048,0.92
0,0.52,0,0,0.52,0,0,0.52,0,0,0.52,0,0,0.52,0,0,0.52,0,0.1488,0.3232
0.12,0.096,-5,0.032,0.008,-1.3333,0,-0.024,-0,0,-0.024,-0,0,-0.024,-0,0,-0.024,-0,-0.2544,0.6192
0.088,0.088,Inf,0,0,NaN,0,0,NaN,0,0,NaN,0,0,NaN,0,0,NaN,-0.352,0.8736
0.048,0.072,2,0,0.024,0,0,0.024,0,0,0.024,0,0,0.024,0,0,0.024,0,0.1184,0.3104
0.048,0.08,1.5,0,0.032,0,0,0.032,0,0,0.032,0,0,0.032,0,0,0.032,0,0.128,0.224
0,0.432,0,0,0.432,0,0,0.432,0,0,0.432,0,0,0.432,0,0,0.432,0,0.1648,0.3712
0.104,0.056,-2.1667,0,-0.048,-0,0,-0.048,-0,0,-0.048,-0,0,-0.048,-0,0,-0.048,-0,-0.336,0.8576
0,0.384,0,0,0.384,0,0,0.384,0,0,0.384,0,0,0.384,0,0,0.384,0,0.096,0.24
0,-0.08,-0,0,-0.08,-0,0,-0.08,-0,0,-0.08,-0,0,-0.08,-0,0,-0.08,-0,-0.1392,0.5264
0,0.104,0,0,0.104,0,0,0.104,0,0,0.104,0,0,0.104,0,0,0.104,0,0.128,0.2576
0,-0.112,-0,0,-0.112,-0,0,-0.112,-0,0,-0.112,-0,0,-0.112,-0,0,-0.112,-0,0.0704,0.1952
0.12,0.184,1.875,0.04,0.072,1.25,0,0.032,0,0,0.032,0,0,0.032,0,0,0.032,0,0.1728,0.4176
0.176,0.08,-1.8333,0.104,0.008,-1.0833,0.064,-0.032,-0.66667,0,-0.096,-0,0,-0.096,-0,0,-0.096,-0,-0.3248,0.6528
0.032,0.08,0.66667,0,0.048,0,0,0.048,0,0,0.048,0,0,0.048,0,0,0.048,0,-0.2752,0.752
0,-0.08,-0,0,-0.08,-0,0,-0.08,-0,0,-0.08,-0,0,-0.08,-0,0,-0.08,-0,-0.2368,0.5808
0.048,0.112,0.75,0,0.064,0,0,0.064,0,0,0.064,0,0,0.064,0,0,0.064,0,0.1648,0.4928
0,-0.184,-0,0,-0.184,-0,0,-0.184,-0,0,-0.184,-0,0,-0.184,-0,0,-0.184,-0,0.2096,0.3504
0,-0.408,-0,0,-0.408,-0,0,-0.408,-0,0,-0.408,-0,0,-0.408,-0,0,-0.408,-0,0.152,0.3344
0,-0.2,-0,0,-0.2,-0,0,-0.2,-0,0,-0.2,-0,0,-0.2,-0,0,-0.2,-0,0.1664,0.1968
0,0.008,0,0,0.008,0,0,0.008,0,0,0.008,0,0,0.008,0,0,0.008,0,0.1088,0.3136
0.096,0.2,0.92308,0.032,0.072,0.8,0,0.04,0,0,0.04,0,0,0.04,0,0,0.04,0,0.1824,0.408
0,0.152,0,0,0.152,0,0,0.152,0,0,0.152,0,0,0.152,0,0,0.152,0,0.1392,0.3968
0,-0.12,-0,0,-0.12,-0,0,-0.12,-0,0,-0.12,-0,0,-0.12,-0,0,-0.12,-0,0.088,0.2128
0.128,-0.024,-0.84211,0.048,-0.104,-0.31579,0,-0.152,-0,0,-0.152,-0,0,-0.152,-0,0,-0.152,-0,-0.2864,0.656
0,0.216,0,0,0.216,0,0,0.216,0,0,0.216,0,0,0.216,0,0,0.216,0,0.1504,0.16
0.064,-0.112,-0.36364,0,-0.176,-0,0,-0.176,-0,0,-0.176,-0,0,-0.176,-0,0,-0.176,-0,-0.2336,0.504
0,0.064,0,0,0.064,0,0,0.064,0,0,0.064,0,0,0.064,0,0,0.064,0,0.1248,0.3616
0,-0.176,-0,0,-0.176,-0,0,-0.176,-0,0,-0.176,-0,0,-0.176,-0,0,-0.176,-0,-0.1984,0.4992
0,0.296,0,0,0.296,0,0,0.296,0,0,0.296,0,0,0.296,0,0,0.296,0,0.1056,0.1456
0,-0.048,-0,0,-0.048,-0,0,-0.048,-0,0,-0.048,-0,0,-0.048,-0,0,-0.048,-0,0.0656,0.1088
0,0.192,0,0,0.192,0,0,0.192,0,0,0.192,0,0,0.192,0,0,0.192,0,0.12,0.2352
0,-0.056,-0,0,-0.056,-0,0,-0.056,-0,0,-0.056,-0,0,-0.056,-0,0,-0.056,-0,0.1216,0.2256
0,0.408,0,0,0.408,0,0,0.408,0,0,0.408,0,0,0.408,0,0,0.408,0,0.16,0.2592
0.096,0.144,2,0,0.048,0,0,0.048,0,0,0.048,0,0,0.048,0,0,0.048,0,0.1248,0.2352
0.12,-0.448,-0.21127,0.048,-0.52,-0.084507,0,-0.568,-0,0,-0.568,-0,0,-0.568,-0,0,-0.568,-0,-0.3424,0.7904
0,-0.472,-0,0,-0.472,-0,0,-0.472,-0,0,-0.472,-0,0,-0.472,-0,0,-0.472,-0,0.0848,0.1312
0.04,0.064,1.6667,0,0.024,0,0,0.024,0,0,0.024,0,0,0.024,0,0,0.024,0,0.1408,0.2368
0.128,0.192,2,0.08,0.12,2,0.048,0.072,2,0,0.024,0,0,0.024,0,0,0.024,0,0.2112,0.3312
0,-0.768,-0,0,-0.768,-0,0,-0.768,-0,0,-0.768,-0,0,-0.768,-0,0,-0.768,-0,-0.24,0.728
0,-0.184,-0,0,-0.184,-0,0,-0.184,-0,0,-0.184,-0,0,-0.184,-0,0,-0.184,-0,0.1616,0.3072
0,-0.648,-0,0,-0.648,-0,0,-0.648,-0,0,-0.648,-0,0,-0.648,-0,0,-0.648,-0,-0.1568,0.3808
0.088,0.136,1.8333,0.032,0.056,1.3333,0,0.024,0,0,0.024,0,0,0.024,0,0,0.024,0,0.0912,0.1616
0,0.056,0,0,0.056,0,0,0.056,0,0,0.056,0,0,0.056,0,0,0.056,0,-0.2352,0.744
0,-0.168,-0,0,-0.168,-0,0,-0.168,-0,0,-0.168,-0,0,-0.168,-0,0,-0.168,-0,-0.2336,0.5856
0.104,0.08,-4.3333,0.048,0.024,-2,0,-0.024,-0,0,-0.024,-0,0,-0.024,-0,0,-0.024,-0,-0.208,0.5824
0.112,0.08,-3.5,0.056,0.024,-1.75,0,-0.032,-0,0,-0.032,-0,0,-0.032,-0,0,-0.032,-0,-0.2512,0.6336
0,0.432,0,0,0.432,0,0,0.432,0,0,0.432,0,0,0.432,0,0,0.432,0,0.1264,0.2336
0.096,0.144,2,0.032,0.048,2,0,0.016,0,0,0.016,0,0,0.016,0,0,0.016,0,0.1264,0.32
0,0.224,0,0,0.224,0,0,0.224,0,0,0.224,0,0,0.224,0,0,0.224,0,0.1888,0.3376
0,0.44,0,0,0.44,0,0,0.44,0,0,0.44,0,0,0.44,0,0,0.44,0,0.1376,0.36
0.104,0.088,-6.5,0.048,0.032,-3,0,-0.016,-0,0,-0.016,-0,0,-0.016,-0,0,-0.016,-0,-0.3744,0.7616
0.104,0.032,-1.4444,0.048,-0.024,-0.66667,0,-0.072,-0,0,-0.072,-0,0,-0.072,-0,0,-0.072,-0,-0.2592,0.6304
0,-0.072,-0,0,-0.072,-0,0,-0.072,-0,0,-0.072,-0,0,-0.072,-0,0,-0.072,-0,0.0832,0.1248
0.08,0.112,2.5,0,0.032,0,0,0.032,0,0,0.032,0,0,0.032,0,0,0.032,0,0.0896,0.2048
0.112,-0.216,-0.34146,0.064,-0.264,-0.19512,0,-0.328,-0,0,-0.328,-0,0,-0.328,-0,0,-0.328,-0,-0.2288,0.5568
0,-0.296,-0,0,-0.296,-0,0,-0.296,-0,0,-0.296,-0,0,-0.296,-0,0,-0.296,-0,-0.2256,0.6704
0,0.344,0,0,0.344,0,0,0.344,0,0,0.344,0,0,0.344,0,0,0.344,0,0.1568,0.264
0.088,0.136,1.8333,0,0.048,0,0,0.048,0,0,0.048,0,0,0.048,0,0,0.048,0,0.1632,0.2736
0.096,-0.304,-0.24,0.032,-0.368,-0.08,0,-0.4,-0,0,-0.4,-0,0,-0.4,-0,0,-0.4,-0,-0.2208,0.592
0.104,-0.36,-0.22414,0.056,-0.408,-0.12069,0.016,-0.448,-0.034483,0,-0.464,-0,0,-0.464,-0,0,-0.464,-0,-0.3088,0.672
0,-0.288,-0,0,-0.288,-0,0,-0.288,-0,0,-0.288,-0,0,-0.288,-0,0,-0.288,-0,0.0864,0.2416
0,-0.136,-0,0,-0.136,-0,0,-0.136,-0,0,-0.136,-0,0,-0.136,-0,0,-0.136,-0,0.1792,0.3952
0.128,0.208,1.6,0.04,0.096,0.71429,0.024,0.064,0.6,0,0.04,0,0,0.04,0,0,0.04,0,0.1232,0.3808
0,0.256,0,0,0.256,0,0,0.256,0,0,0.256,0,0,0.256,0,0,0.256,0,0.1328,0.176
0,-0.08,-0,0,-0.08,-0,0,-0.08,-0,0,-0.08,-0,0,-0.08,-0,0,-0.08,-0,-0.3312,0.968
0,0.344,0,0,0.344,0,0,0.344,0,0,0.344,0,0,0.344,0,0,0.344,0,0.096,0.2288
0,0.488,0,0,0.488,0,0,0.488,0,0,0.488,0,0,0.488,0,0,0.488,0,0.1312,0.3664
0.112,0.176,1.75,0.064,0.104,1.6,0.032,0.056,1.3333,0,0.024,0,0,0.024,0,0,0.024,0,0.0944,0.2272
0.112,-0.32,-0.25926,0.064,-0.368,-0.14815,0,-0.432,-0,0,-0.432,-0,0,-0.432,-0,0,-0.432,-0,-0.3504,0.8288
0.152,0.232,1.9,0.104,0.16,1.8571,0.072,0.104,2.25,0,0.032,0,0,0.032,0,0,0.032,0,0.2224,0.4896
0.112,0.176,1.75,0.048,0.08,1.5,0,0.032,0,0,0.032,0,0,0.032,0,0,0.032,0,0.136,0.3392
0,-0.184,-0,0,-0.184,-0,0,-0.184,-0,0,-0.184,-0,0,-0.184,-0,0,-0.184,-0,0.1488,0.344
0,-0.44,-0,0,-0.44,-0,0,-0.44,-0,0,-0.44,-0,0,-0.44,-0,0,-0.44,-0,-0.3392,0.8112
0,0.008,0,0,0.008,0,0,0.008,0,0,0.008,0,0,0.008,0,0,0.008,0,0.0912,0.2416
0.088,-0.312,-0.22,0.016,-0.384,-0.04,0,-0.4,-0,0,-0.4,-0,0,-0.4,-0,0,-0.4,-0,-0.4112,0.976
0,0.104,0,0,0.104,0,0,0.104,0,0,0.104,0,0,0.104,0,0,0.104,0,0.1312,0.328
0,-0.472,-0,0,-0.472,-0,0,-0.472,-0,0,-0.472,-0,0,-0.472,-0,0,-0.472,-0,-0.2608,0.7424
0.424,0.024,-1.06,0.256,-0.144,-0.64,0.192,-0.208,-0.48,0.136,-0.264,-0.34,0.056,-0.344,-0.14,0,-0.4,-0,-0.44,1.0048
0.136,-0.232,-0.36957,0.08,-0.288,-0.21739,0,-0.368,-0,0,-0.368,-0,0,-0.368,-0,0,-0.368,-0,-0.416,0.9648
0.152,0.224,2.1111,0.096,0.144,2,0.04,0.064,1.6667,0,0.024,0,0,0.024,0,0,0.024,0,0.1696,0.3072
0,-0.176,-0,0,-0.176,-0,0,-0.176,-0,0,-0.176,-0,0,-0.176,-0,0,-0.176,-0,0.0912,0.2096
0.096,0.144,2,0.016,0.024,2,0,0.008,0,0,0.008,0,0,0.008,0,0,0.008,0,0.104,0.2016
0.128,0.128,Inf,0.064,0.064,Inf,0.016,0.016,Inf,0,0,NaN,0,0,NaN,0,0,NaN,0.0976,0.4016
0.128,0.192,2,0.064,0.104,1.6,0,0.04,0,0,0.04,0,0,0.04,0,0,0.04,0,0.128,0.384
0,0.448,0,0,0.448,0,0,0.448,0,0,0.448,0,0,0.448,0,0,0.448,0,0.1008,0.2384
0.192,0.096,-2,0.136,0.04,-1.4167,0.112,0.016,-1.1667,0.032,-0.064,-0.33333,0,-0.096,-0,0,-0.096,-0,-0.28,0.6496
0.144,0.216,2,0.088,0.128,2.2,0,0.04,0,0,0.04,0,0,0.04,0,0,0.04,0,0.12,0.224
0,-0.344,-0,0,-0.344,-0,0,-0.344,-0,0,-0.344,-0,0,-0.344,-0,0,-0.344,-0,0.0816,0.1344
0.104,-0.496,-0.17333,0,-0.6,-0,0,-0.6,-0,0,-0.6,-0,0,-0.6,-0,0,-0.6,-0,-0.3312,0.7056
0,-0.36,-0,0,-0.36,-0,0,-0.36,-0,0,-0.36,-0,0,-0.36,-0,0,-0.36,-0,0.2176,0.408
0,-0.184,-0,0,-0.184,-0,0,-0.184,-0,0,-0.184,-0,0,-0.184,-0,0,-0.184,-0,0.1728,0.336
0.128,-0.272,-0.32,0.072,-0.328,-0.18,0,-0.4,-0,0,-0.4,-0,0,-0.4,-0,0,-0.4,-0,-0.3328,0.6496
0.128,-0.448,-0.22222,0.08,-0.496,-0.13889,0.04,-0.536,-0.069444,0,-0.576,-0,0,-0.576,-0,0,-0.576,-0,-0.3936,0.968
0.104,-0.4,-0.20635,0,-0.504,-0,0,-0.504,-0,0,-0.504,-0,0,-0.504,-0,0,-0.504,-0,-0.4272,0.96
0,-0.296,-0,0,-0.296,-0,0,-0.296,-0,0,-0.296,-0,0,-0.296,-0,0,-0.296,-0,0.1296,0.2336
0,-0.264,-0,0,-0.264,-0,0,-0.264,-0,0,-0.264,-0,0,-0.264,-0,0,-0.264,-0,0.1408,0.2736
0,-0.072,-0,0,-0.072,-0,0,-0.072,-0,0,-0.072,-0,0,-0.072,-0,0,-0.072,-0,0.1088,0.2224
0.128,0.2,1.7778,0.064,0.088,2.6667,0,0.024,0,0,0.024,0,0,0.024,0,0,0.024,0,0.24,0.44
0.096,-0.256,-0.27273,0,-0.352,-0,0,-0.352,-0,0,-0.352,-0,0,-0.352,-0,0,-0.352,-0,-0.2848,0.6032
0,-0.032,-0,0,-0.032,-0,0,-0.032,-0,0,-0.032,-0,0,-0.032,-0,0,-0.032,-0,0.128,0.3552
0,-0.448,-0,0,-0.448,-0,0,-0.448,-0,0,-0.448,-0,0,-0.448,-0,0,-0.448,-0,-0.1328,0.3248
0.136,-0.216,-0.38636,0.072,-0.28,-0.20455,0,-0.352,-0,0,-0.352,-0,0,-0.352,-0,0,-0.352,-0,-0.3648,0.824
0.08,0.104,3.3333,0,0.024,0,0,0.024,0,0,0.024,0,0,0.024,0,0,0.024,0,0.1776,0.3376
0.176,-0.008,-0.95652,0.112,-0.072,-0.6087,0.072,-0.112,-0.3913,0,-0.184,-0,0,-0.184,-0,0,-0.184,-0,-0.3872,0.9648
0.136,0.2,2.125,0.072,0.112,1.8,0.016,0.024,2,0,0.008,0,0,0.008,0,0,0.008,0,0.1008,0.2736
0,0.056,0,0,0.056,0,0,0.056,0,0,0.056,0,0,0.056,0,0,0.056,0,0.1296,0.2624
0,0.256,0,0,0.256,0,0,0.256,0,0,0.256,0,0,0.256,0,0,0.256,0,0.072,0.1184
0,0.056,0,0,0.056,0,0,0.056,0,0,0.056,0,0,0.056,0,0,0.056,0,0.0864,0.1968
0,-0.112,-0,0,-0.112,-0,0,-0.112,-0,0,-0.112,-0,0,-0.112,-0,0,-0.112,-0,-0.2144,0.536
0.016,-0.2,-0.074074,0,-0.216,-0,0,-0.216,-0,0,-0.216,-0,0,-0.216,-0,0,-0.216,-0,-0.3088,0.6272
0.072,-0.144,-0.33333,0,-0.216,-0,0,-0.216,-0,0,-0.216,-0,0,-0.216,-0,0,-0.216,-0,-0.312,0.6592
-0.608,-0.304,-2,0.32,0.568,1.2903,0.208,0.392,1.1304,0.112,0.176,1.75,0,0.064,0,0,0.064,0,0.1584,0.5104
0,-0.488,-0,0,-0.488,-0,0,-0.488,-0,0,-0.488,-0,0,-0.488,-0,0,-0.488,-0,0.104,0.2208
0,-0.304,-0,0,-0.304,-0,0,-0.304,-0,0,-0.304,-0,0,-0.304,-0,0,-0.304,-0,0.136,0.232
0,-0.016,-0,0,-0.016,-0,0,-0.016,-0,0,-0.016,-0,0,-0.016,-0,0,-0.016,-0,0.1232,0.3024
0,-0.264,-0,0,-0.264,-0,0,-0.264,-0,0,-0.264,-0,0,-0.264,-0,0,-0.264,-0,0.1504,0.3392
0.08,0.12,2,0,0.04,0,0,0.04,0,0,0.04,0,0,0.04,0,0,0.04,0,0.1344,0.3072
0,0.432,0,0,0.432,0,0,0.432,0,0,0.432,0,0,0.432,0,0,0.432,0,0.2064,0.3232
0.064,0.096,2,0,0.032,0,0,0.032,0,0,0.032,0,0,0.032,0,0,0.032,0,0.088,0.1936
0.112,0.176,1.75,0.056,0.096,1.4,0.008,0.016,1,0,0.008,0,0,0.008,0,0,0.008,0,0.1248,0.2016
0.112,-0.408,-0.21538,0.048,-0.472,-0.092308,0,-0.52,-0,0,-0.52,-0,0,-0.52,-0,0,-0.52,-0,-0.2912,0.5888
0.136,-0.28,-0.32692,0.096,-0.32,-0.23077,0.056,-0.36,-0.13462,0,-0.416,-0,0,-0.416,-0,0,-0.416,-0,-0.4368,0.9824
0.152,-0.312,-0.32759,0.08,-0.384,-0.17241,0,-0.464,-0,0,-0.464,-0,0,-0.464,-0,0,-0.464,-0,-0.6144,1.3696
0.112,-0.296,-0.27451,0.072,-0.336,-0.17647,0.024,-0.384,-0.058824,0,-0.408,-0,0,-0.408,-0,0,-0.408,-0,-0.3488,0.6752
0.08,0.12,2,0,0.04,0,0,0.04,0,0,0.04,0,0,0.04,0,0,0.04,0,0.136,0.4656
0,-0.112,-0,0,-0.112,-0,0,-0.112,-0,0,-0.112,-0,0,-0.112,-0,0,-0.112,-0,-0.416,1.0128
0.144,0.232,1.6364,0.096,0.152,1.7143,0.056,0.088,1.75,0,0.032,0,0,0.032,0,0,0.032,0,0.1408,0.3392
0,0.04,0,0,0.04,0,0,0.04,0,0,0.04,0,0,0.04,0,0,0.04,0,0.144,0.32
0,-0.128,-0,0,-0.128,-0,0,-0.128,-0,0,-0.128,-0,0,-0.128,-0,0,-0.128,-0,0.1072,0.248
0.136,0.2,2.125,0.088,0.128,2.2,0,0.04,0,0,0.04,0,0,0.04,0,0,0.04,0,0.1264,0.3296
0.128,-0.28,-0.31373,0.088,-0.32,-0.21569,0.032,-0.376,-0.078431,0,-0.408,-0,0,-0.408,-0,0,-0.408,-0,-0.4112,0.8944
0.144,0.248,1.3846,0.064,0.12,1.1429,0,0.056,0,0,0.056,0,0,0.056,0,0,0.056,0,0.1808,0.5376
0.24,0.08,-1.5,0.136,-0.024,-0.85,0.064,-0.096,-0.4,0,-0.16,-0,0,-0.16,-0,0,-0.16,-0,-0.464,1.1408
0.384,0.08,-1.2632,0,-0.304,-0,0,-0.304,-0,0,-0.304,-0,0,-0.304,-0,0,-0.304,-0,-0.1824,0.4368
0.12,0.184,1.875,0.048,0.072,2,0,0.024,0,0,0.024,0,0,0.024,0,0,0.024,0,0.2,0.5888
0.248,0.064,-1.3478,0.136,-0.048,-0.73913,0.088,-0.096,-0.47826,0,-0.184,-0,0,-0.184,-0,0,-0.184,-0,-0.5088,1.2416
0.208,0.296,2.3636,0.08,0.136,1.4286,0,0.056,0,0,0.056,0,0,0.056,0,0,0.056,0,0.1936,0.5424
0.384,0.416,12,0.232,0.264,7.25,0.168,0.2,5.25,0.016,0.048,0.5,0,0.032,0,0,0.032,0,-0.4032,0.9632
0.216,0.32,2.0769,0.12,0.184,1.875,0.08,0.128,1.6667,0,0.048,0,0,0.048,0,0,0.048,0,0.1856,0.4464
0.192,-0.352,-0.35294,0.088,-0.456,-0.16176,0.04,-0.504,-0.073529,0,-0.544,-0,0,-0.544,-0,0,-0.544,-0,-0.4336,1.0512
0.064,0.112,1.3333,0,0.048,0,0,0.048,0,0,0.048,0,0,0.048,0,0,0.048,0,0.1776,0.4048
0.152,0.232,1.9,0.016,0.024,2,0,0.008,0,0,0.008,0,0,0.008,0,0,0.008,0,0.2,0.4224
0.12,0.184,1.875,0.048,0.072,2,0,0.024,0,0,0.024,0,0,0.024,0,0,0.024,0,0.1888,0.4288
0.448,0.184,-1.697,0.248,-0.016,-0.93939,0.168,-0.096,-0.63636,0.048,-0.216,-0.18182,0,-0.264,-0,0,-0.264,-0,-0.5152,1.2288
0.176,0.272,1.8333,0.08,0.144,1.25,0.04,0.08,1,0,0.04,0,0,0.04,0,0,0.04,0,0.1872,0.5408
0.112,-0.112,-0.5,0.064,-0.16,-0.28571,0,-0.224,-0,0,-0.224,-0,0,-0.224,-0,0,-0.224,-0,-0.5056,1.04
1.048,0.824,-4.6786,0.152,-0.072,-0.67857,0.088,-0.136,-0.39286,0,-0.224,-0,0,-0.224,-0,0,-0.224,-0,-0.4736,1.0768
0.072,0.112,1.8,0.032,0.048,2,0,0.016,0,0,0.016,0,0,0.016,0,0,0.016,0,0.088,0.1648
0.08,0.136,1.4286,0.048,0.08,1.5,0.008,0.008,Inf,0,0,NaN,0,0,NaN,0,0,NaN,0.1088,0.2144
0.128,0.032,-1.3333,0.088,-0.008,-0.91667,0.072,-0.024,-0.75,0,-0.096,-0,0,-0.096,-0,0,-0.096,-0,-0.408,0.9936
0.112,0.176,1.75,0.048,0.08,1.5,0,0.032,0,0,0.032,0,0,0.032,0,0,0.032,0,0.1264,0.4064
0,-0.144,-0,0,-0.144,-0,0,-0.144,-0,0,-0.144,-0,0,-0.144,-0,0,-0.144,-0,0.1232,0.2368
0.12,-0.2,-0.375,0.072,-0.248,-0.225,0.048,-0.272,-0.15,0,-0.32,-0,0,-0.32,-0,0,-0.32,-0,-0.2928,0.6864
0.08,0.136,1.4286,0.024,0.04,1.5,0,0.016,0,0,0.016,0,0,0.016,0,0,0.016,0,0.152,0.3344
0.088,0.144,1.5714,0.04,0.064,1.6667,0,0.024,0,0,0.024,0,0,0.024,0,0,0.024,0,0.12,0.3888
0.28,0.36,3.5,0.104,0.16,1.8571,0.08,0.128,1.6667,0,0.048,0,0,0.048,0,0,0.048,0,0.0976,0.304
0.152,-0.128,-0.54286,0.072,-0.208,-0.25714,0.008,-0.272,-0.028571,0,-0.28,-0,0,-0.28,-0,0,-0.28,-0,-0.312,0.712
0.024,-0.2,-0.10714,0,-0.224,-0,0,-0.224,-0,0,-0.224,-0,0,-0.224,-0,0,-0.224,-0,-0.144,0.3984
0,0.224,0,0,0.224,0,0,0.224,0,0,0.224,0,0,0.224,0,0,0.224,0,0.168,0.1264
0.088,0.152,1.375,0.048,0.08,1.5,0,0.032,0,0,0.032,0,0,0.032,0,0,0.032,0,0.1552,0.2064
0.088,0.152,1.375,0.048,0.08,1.5,0,0.032,0,0,0.032,0,0,0.032,0,0,0.032,0,0.1552,0.2064
0.08,0.136,1.4286,0,0.056,0,0,0.056,0,0,0.056,0,0,0.056,0,0,0.056,0,0.1952,0.6368
0.112,0.056,-2,0.072,0.016,-1.2857,0.04,-0.016,-0.71429,0,-0.056,-0,0,-0.056,-0,0,-0.056,-0,-0.2912,0.744
0,0.128,0,0,0.128,0,0,0.128,0,0,0.128,0,0,0.128,0,0,0.128,0,0.1088,0.2416
0,-0.12,-0,0,-0.12,-0,0,-0.12,-0,0,-0.12,-0,0,-0.12,-0,0,-0.12,-0,0.1216,0.2128
0.104,0.04,-1.625,0.056,-0.008,-0.875,0.032,-0.032,-0.5,0,-0.064,-0,0,-0.064,-0,0,-0.064,-0,-0.2688,0.6832
0,0.128,0,0,0.128,0,0,0.128,0,0,0.128,0,0,0.128,0,0,0.128,0,0.1376,0.256
0,-0.112,-0,0,-0.112,-0,0,-0.112,-0,0,-0.112,-0,0,-0.112,-0,0,-0.112,-0,-0.1008,0.3328
0.088,0,-1,0.056,-0.032,-0.63636,0.04,-0.048,-0.45455,0,-0.088,-0,0,-0.088,-0,0,-0.088,-0,-0.1552,0.3984
0,-0.016,-0,0,-0.016,-0,0,-0.016,-0,0,-0.016,-0,0,-0.016,-0,0,-0.016,-0,-0.112,0.3696
0.088,0.216,0.6875,0.048,0.176,0.375,0.016,0.144,0.125,0,0.128,0,0,0.128,0,0,0.128,0,-0.2544,0.84
0.072,-0.024,-0.75,0.016,-0.08,-0.16667,0,-0.096,-0,0,-0.096,-0,0,-0.096,-0,0,-0.096,-0,-0.264,0.8464
0,-0.056,-0,0,-0.056,-0,0,-0.056,-0,0,-0.056,-0,0,-0.056,-0,0,-0.056,-0,0.1248,0.1392
0,-0.056,-0,0,-0.056,-0,0,-0.056,-0,0,-0.056,-0,0,-0.056,-0,0,-0.056,-0,0.1248,0.1392
0.072,0.112,1.8,0.04,0.056,2.5,0,0.016,0,0,0.016,0,0,0.016,0,0,0.016,0,0.1152,0.1568
0,-0.112,-0,0,-0.112,-0,0,-0.112,-0,0,-0.112,-0,0,-0.112,-0,0,-0.112,-0,-0.144,0.416
0.064,-0.04,-0.61538,0.032,-0.072,-0.30769,0,-0.104,-0,0,-0.104,-0,0,-0.104,-0,0,-0.104,-0,-0.1552,0.4144
0,-0.08,-0,0,-0.08,-0,0,-0.08,-0,0,-0.08,-0,0,-0.08,-0,0,-0.08,-0,-0.1504,0.416
0.08,0.016,-1.25,0.048,-0.016,-0.75,0.016,-0.048,-0.25,0,-0.064,-0,0,-0.064,-0,0,-0.064,-0,-0.1584,0.4176
0,-0.056,-0,0,-0.056,-0,0,-0.056,-0,0,-0.056,-0,0,-0.056,-0,0,-0.056,-0,-0.136,0.4032
0,-0.072,-0,0,-0.072,-0,0,-0.072,-0,0,-0.072,-0,0,-0.072,-0,0,-0.072,-0,-0.1488,0.424
0,-0.048,-0,0,-0.048,-0,0,-0.048,-0,0,-0.048,-0,0,-0.048,-0,0,-0.048,-0,-0.144,0.4128
0.072,0.072,Inf,0.04,0.04,Inf,0,0,NaN,0,0,NaN,0,0,NaN,0,0,NaN,-0.1552,0.4112
0,0.072,0,0,0.072,0,0,0.072,0,0,0.072,0,0,0.072,0,0,0.072,0,0.1088,0.1456
0.128,0.032,-1.3333,0.024,-0.072,-0.25,0,-0.096,-0,0,-0.096,-0,0,-0.096,-0,0,-0.096,-0,-0.16,0.4272
0,0.088,0,0,0.088,0,0,0.088,0,0,0.088,0,0,0.088,0,0,0.088,0,0.1088,0.1296
0,0.024,0,0,0.024,0,0,0.024,0,0,0.024,0,0,0.024,0,0,0.024,0,0.12,0.144
0,0.128,0,0,0.128,0,0,0.128,0,0,0.128,0,0,0.128,0,0,0.128,0,0.112,0.1488
0.04,0.056,2.5,0,0.016,0,0,0.016,0,0,0.016,0,0,0.016,0,0,0.016,0,0.1008,0.1504
0,-0.144,-0,0,-0.144,-0,0,-0.144,-0,0,-0.144,-0,0,-0.144,-0,0,-0.144,-0,-0.1488,0.4192
0.08,-0.12,-0.4,0.048,-0.152,-0.24,0.024,-0.176,-0.12,0,-0.2,-0,0,-0.2,-0,0,-0.2,-0,-0.136,0.3872
0,-0.152,-0,0,-0.152,-0,0,-0.152,-0,0,-0.152,-0,0,-0.152,-0,0,-0.152,-0,0.0976,0.1872
0,-0.16,-0,0,-0.16,-0,0,-0.16,-0,0,-0.16,-0,0,-0.16,-0,0,-0.16,-0,-0.3088,0.6608
0,-0.16,-0,0,-0.16,-0,0,-0.16,-0,0,-0.16,-0,0,-0.16,-0,0,-0.16,-0,-0.3088,0.6608
0.136,0.024,-1.2143,0.096,-0.016,-0.85714,0.08,-0.032,-0.71429,0,-0.112,-0,0,-0.112,-0,0,-0.112,-0,-0.3104,0.7408
0.168,0.08,-1.9091,0.112,0.024,-1.2727,0.08,-0.008,-0.90909,0,-0.088,-0,0,-0.088,-0,0,-0.088,-0,-0.3936,1.0416
0.152,0.264,1.3571,0.096,0.168,1.3333,0.056,0.096,1.4,0,0.04,0,0,0.04,0,0,0.04,0,0.2544,0.4016
0.112,0.208,1.1667,0.048,0.08,1.5,0,0.032,0,0,0.032,0,0,0.032,0,0,0.032,0,0.2208,0.4032
0.136,-0.376,-0.26562,0.08,-0.432,-0.15625,0.008,-0.504,-0.015625,0,-0.512,-0,0,-0.512,-0,0,-0.512,-0,-0.4736,1.3024
0.12,0.2,1.5,0.064,0.104,1.6,0,0.04,0,0,0.04,0,0,0.04,0,0,0.04,0,0.3344,0.4736
0.16,-0.576,-0.21739,0.096,-0.64,-0.13043,0.064,-0.672,-0.086957,0,-0.736,-0,0,-0.736,-0,0,-0.736,-0,-0.4848,1.2992
0.16,-0.392,-0.28986,0.104,-0.448,-0.18841,0.08,-0.472,-0.14493,0,-0.552,-0,0,-0.552,-0,0,-0.552,-0,-0.4512,1.1424
0,-0.496,-0,0,-0.496,-0,0,-0.496,-0,0,-0.496,-0,0,-0.496,-0,0,-0.496,-0,0.1904,0.3824
0.056,0.104,1.1667,0,0.048,0,0,0.048,0,0,0.048,0,0,0.048,0,0,0.048,0,0.1456,0.44
0.056,0.104,1.1667,0,0.048,0,0,0.048,0,0,0.048,0,0,0.048,0,0,0.048,0,0.1456,0.44
0.264,0.368,2.5385,0.144,0.208,2.25,0.08,0.128,1.6667,0,0.048,0,0,0.048,0,0,0.048,0,0.1696,0.4432
0.136,0.232,1.4167,0.032,0.064,1,0,0.032,0,0,0.032,0,0,0.032,0,0,0.032,0,0.2176,0.488
0.128,0.2,1.7778,0.056,0.096,1.4,0,0.04,0,0,0.04,0,0,0.04,0,0,0.04,0,0.1872,0.4672
0.248,0.368,2.0667,0.128,0.216,1.4545,0.096,0.168,1.3333,0,0.072,0,0,0.072,0,0,0.072,0,0.1632,0.3696
0.312,0.048,-1.1818,0.144,-0.12,-0.54545,0.104,-0.16,-0.39394,0.032,-0.232,-0.12121,0,-0.264,-0,0,-0.264,-0,-0.376,0.8976
0.352,0.16,-1.8333,0.152,-0.04,-0.79167,0.104,-0.088,-0.54167,0,-0.192,-0,0,-0.192,-0,0,-0.192,-0,-0.3584,0.8656
-0.032,0.064,-0.33333,0.136,0.232,1.4167,0.104,0.2,1.0833,0.056,0.112,1,0,0.056,0,0,0.056,0,0.1168,0.192
0.032,0.048,2,0,0.016,0,0,0.016,0,0,0.016,0,0,0.016,0,0,0.016,0,0.1424,0.2944
0,-0.104,-0,0,-0.104,-0,0,-0.104,-0,0,-0.104,-0,0,-0.104,-0,0,-0.104,-0,0.1056,0.2912
0,-0.056,-0,0,-0.056,-0,0,-0.056,-0,0,-0.056,-0,0,-0.056,-0,0,-0.056,-0,0.2352,0.4672
0.272,0.072,-1.36,0.096,-0.104,-0.48,0.072,-0.128,-0.36,0.016,-0.184,-0.08,0,-0.2,-0,0,-0.2,-0,-0.1952,0.496
0,0.2,0,0,0.2,0,0,0.2,0,0,0.2,0,0,0.2,0,0,0.2,0,0.1136,0.3136
0.032,0.064,1,0,0.032,0,0,0.032,0,0,0.032,0,0,0.032,0,0,0.032,0,0.128,0.416
0.12,0.008,-1.0714,0.064,-0.048,-0.57143,0.024,-0.088,-0.21429,0,-0.112,-0,0,-0.112,-0,0,-0.112,-0,-0.4704,1.0832
0.096,0.176,1.2,0.048,0.088,1.2,0,0.04,0,0,0.04,0,0,0.04,0,0,0.04,0,0.176,0.5056
0.44,0.04,-1.1,0.328,-0.072,-0.82,0.136,-0.264,-0.34,0.04,-0.36,-0.1,0,-0.4,-0,0,-0.4,-0,-0.1952,0.5152
0,-0.36,-0,0,-0.36,-0,0,-0.36,-0,0,-0.36,-0,0,-0.36,-0,0,-0.36,-0,-0.1904,0.4912
0.032,0.048,2,0,0.016,0,0,0.016,0,0,0.016,0,0,0.016,0,0,0.016,0,0.1072,0.1952
0.096,0,-1,0.056,-0.04,-0.58333,0.04,-0.056,-0.41667,0,-0.096,-0,0,-0.096,-0,0,-0.096,-0,-0.1888,0.4944
0.096,0.096,Inf,0.056,0.056,Inf,0.024,0.024,Inf,0,0,NaN,0,0,NaN,0,0,NaN,0.0912,0.1968
0.048,0.08,1.5,0,0.032,0,0,0.032,0,0,0.032,0,0,0.032,0,0,0.032,0,0.0944,0.1936
0,0.176,0,0,0.176,0,0,0.176,0,0,0.176,0,0,0.176,0,0,0.176,0,0.0976,0.1808
0.056,0.128,0.77778,0.056,0.128,0.77778,0.016,0.016,Inf,0,0,NaN,0,0,NaN,0,0,NaN,0.1264,0.112
0.088,0.168,1.1,0,0.08,0,0,0.08,0,0,0.08,0,0,0.08,0,0,0.08,0,0.096,0.1488
0.128,0.04,-1.4545,0.072,-0.016,-0.81818,0.04,-0.048,-0.45455,0,-0.088,-0,0,-0.088,-0,0,-0.088,-0,-0.1552,0.3888
0.056,0,-1,0,-0.056,-0,0,-0.056,-0,0,-0.056,-0,0,-0.056,-0,0,-0.056,-0,-0.1792,0.4912
0.064,-0.112,-0.36364,0,-0.176,-0,0,-0.176,-0,0,-0.176,-0,0,-0.176,-0,0,-0.176,-0,-0.2896,0.816
0.072,-0.04,-0.64286,0.016,-0.096,-0.14286,0,-0.112,-0,0,-0.112,-0,0,-0.112,-0,0,-0.112,-0,-0.2096,0.6592
0,0.112,0,0,0.112,0,0,0.112,0,0,0.112,0,0,0.112,0,0,0.112,0,0.0944,0.1232
0.152,0.056,-1.5833,0.096,0,-1,0.072,-0.024,-0.75,0,-0.096,-0,0,-0.096,-0,0,-0.096,-0,-0.2176,0.5328
0,-0.176,-0,0,-0.176,-0,0,-0.176,-0,0,-0.176,-0,0,-0.176,-0,0,-0.176,-0,-0.2224,0.5504
0.184,0.048,-1.3529,0.112,-0.024,-0.82353,0.088,-0.048,-0.64706,0,-0.136,-0,0,-0.136,-0,0,-0.136,-0,-0.1792,0.448
0,-0.096,-0,0,-0.096,-0,0,-0.096,-0,0,-0.096,-0,0,-0.096,-0,0,-0.096,-0,-0.1936,0.4848
0,-0.168,-0,0,-0.168,-0,0,-0.168,-0,0,-0.168,-0,0,-0.168,-0,0,-0.168,-0,-0.1936,0.4976
0,-0.136,-0,0,-0.136,-0,0,-0.136,-0,0,-0.136,-0,0,-0.136,-0,0,-0.136,-0,-0.2048,0.52
0.08,0.12,2,0.04,0.056,2.5,0,0.016,0,0,0.016,0,0,0.016,0,0,0.016,0,0.1072,0.2016
0,0.016,0,0,0.016,0,0,0.016,0,0,0.016,0,0,0.016,0,0,0.016,0,0.1136,0.1856
0,-0.152,-0,0,-0.152,-0,0,-0.152,-0,0,-0.152,-0,0,-0.152,-0,0,-0.152,-0,-0.1712,0.4176
0,-0.16,-0,0,-0.16,-0,0,-0.16,-0,0,-0.16,-0,0,-0.16,-0,0,-0.16,-0,-0.1808,0.4944
0.2,0.32,1.6667,0.136,0.208,1.8889,0.104,0.16,1.8571,0.032,0.048,2,0,0.016,0,0,0.016,0,0.1056,0.1696
0.08,0.184,0.76923,0,0.104,0,0,0.104,0,0,0.104,0,0,0.104,0,0,0.104,0,0.1264,0.1504
0.128,0.184,2.2857,0.08,0.136,1.4286,0.048,0.104,0.85714,0,0.056,0,0,0.056,0,0,0.056,0,-0.1904,0.4544
0.016,0.104,0.18182,0.016,0.024,2,0,0.008,0,0,0.008,0,0,0.008,0,0,0.008,0,0.0992,0.1536
0,0.104,0,0,0.104,0,0,0.104,0,0,0.104,0,0,0.104,0,0,0.104,0,0.0992,0.1648
0,0.056,0,0,0.056,0,0,0.056,0,0,0.056,0,0,0.056,0,0,0.056,0,0.0976,0.1648
0.128,0.216,1.4545,0.04,0.072,1.25,0,0.032,0,0,0.032,0,0,0.032,0,0,0.032,0,0.0992,0.1744
0.072,0.168,0.75,0.128,0.192,2,0.096,0.152,1.7143,0.024,0.04,1.5,0,0.016,0,0,0.016,0,0.1008,0.1792
0.072,0.112,1.8,0.008,0.048,0.2,0,0.04,0,0,0.04,0,0,0.04,0,0,0.04,0,-0.2736,0.8464
0.112,0.04,-1.5556,0.064,-0.008,-0.88889,0.032,-0.04,-0.44444,0,-0.072,-0,0,-0.072,-0,0,-0.072,-0,-0.2976,0.8688
0.112,0,-1,0.064,-0.048,-0.57143,0.04,-0.072,-0.35714,0,-0.112,-0,0,-0.112,-0,0,-0.112,-0,-0.1888,0.48
0.152,0.024,-1.1875,0.112,-0.016,-0.875,0.08,-0.048,-0.625,0,-0.128,-0,0,-0.128,-0,0,-0.128,-0,-0.1984,0.4928
0,-0.072,-0,0,-0.072,-0,0,-0.072,-0,0,-0.072,-0,0,-0.072,-0,0,-0.072,-0,0.1328,0.1568
-0.016,0.08,-0.16667,0,0.096,0,0,0.096,0,0,0.096,0,0,0.096,0,0,0.096,0,0.0944,0.1536
0,0.056,0,0,0.056,0,0,0.056,0,0,0.056,0,0,0.056,0,0,0.056,0,-0.1472,0.4432
0,-0.016,-0,0,-0.016,-0,0,-0.016,-0,0,-0.016,-0,0,-0.016,-0,0,-0.016,-0,-0.1504,0.4384
0.376,0.368,-47,0.144,0.136,-18,0.112,0.104,-14,0.04,0.032,-5,0,-0.008,-0,0,-0.008,-0,-0.1968,0.4608
-0.008,-0.008,-Inf,0.352,0.352,Inf,0.168,0.168,Inf,0.064,0.064,Inf,0,0,NaN,0,0,NaN,-0.1712,0.4016
0.08,0.144,1.25,0.016,0.08,0.25,0,0.064,0,0,0.064,0,0,0.064,0,0,0.064,0,-0.1584,0.3648
0.112,0.144,3.5,0.064,0.096,2,0.024,0.056,0.75,0,0.032,0,0,0.032,0,0,0.032,0,-0.304,0.808
0.12,0.176,2.1429,0.072,0.112,1.8,0.048,0.072,2,0,0.024,0,0,0.024,0,0,0.024,0,0.2,0.264
0.096,0.144,2,0.048,0.072,2,0.008,0.008,Inf,0,0,NaN,0,0,NaN,0,0,NaN,0.1056,0.1728
0,-0.104,-0,0,-0.104,-0,0,-0.104,-0,0,-0.104,-0,0,-0.104,-0,0,-0.104,-0,-0.1504,0.4448
0,-0.008,-0,0,-0.008,-0,0,-0.008,-0,0,-0.008,-0,0,-0.008,-0,0,-0.008,-0,0.088,0.152
0.032,0.056,1.3333,0,0.024,0,0,0.024,0,0,0.024,0,0,0.024,0,0,0.024,0,0.1184,0.192
0.064,0.104,1.6,0.016,0.024,2,0,0.008,0,0,0.008,0,0,0.008,0,0,0.008,0,0.088,0.1968
0.144,0.208,2.25,0.08,0.12,2,0.048,0.08,1.5,0,0.032,0,0,0.032,0,0,0.032,0,0.1328,0.2
0.104,0.032,-1.4444,0.056,-0.016,-0.77778,0,-0.072,-0,0,-0.072,-0,0,-0.072,-0,0,-0.072,-0,-0.2048,0.4944
0.104,0.064,-2.6,0.048,0.008,-1.2,0,-0.04,-0,0,-0.04,-0,0,-0.04,-0,0,-0.04,-0,-0.1936,0.4512
0,0,NaN,0,0,NaN,0,0,NaN,0,0,NaN,0,0,NaN,0,0,NaN,-0.1536,0.4528
0,-0.016,-0,0,-0.016,-0,0,-0.016,-0,0,-0.016,-0,0,-0.016,-0,0,-0.016,-0,0.096,0.2
0.096,0.144,2,0.048,0.072,2,0,0.024,0,0,0.024,0,0,0.024,0,0,0.024,0,0.096,0.1984
0,-0.184,-0,0,-0.184,-0,0,-0.184,-0,0,-0.184,-0,0,-0.184,-0,0,-0.184,-0,-0.1712,0.4688
0,0.056,0,0,0.056,0,0,0.056,0,0,0.056,0,0,0.056,0,0,0.056,0,0.0928,0.1632
0,-0.136,-0,0,-0.136,-0,0,-0.136,-0,0,-0.136,-0,0,-0.136,-0,0,-0.136,-0,0.0912,0.1872
0,-0.024,-0,0,-0.024,-0,0,-0.024,-0,0,-0.024,-0,0,-0.024,-0,0,-0.024,-0,0.096,0.1824
0.08,0.12,2,0.032,0.048,2,0,0.016,0,0,0.016,0,0,0.016,0,0,0.016,0,0.1008,0.1968
0,0.176,0,0,0.176,0,0,0.176,0,0,0.176,0,0,0.176,0,0,0.176,0,0.0912,0.1504
0,-0.08,-0,0,-0.08,-0,0,-0.08,-0,0,-0.08,-0,0,-0.08,-0,0,-0.08,-0,-0.1312,0.4208
0.072,0.112,1.8,0,0.04,0,0,0.04,0,0,0.04,0,0,0.04,0,0,0.04,0,0.2368,0.3008
0,-0.136,-0,0,-0.136,-0,0,-0.136,-0,0,-0.136,-0,0,-0.136,-0,0,-0.136,-0,0.1088,0.12
0.136,0.208,1.8889,0.048,0.08,1.5,0,0.032,0,0,0.032,0,0,0.032,0,0,0.032,0,0.1232,0.2656
0,-0.168,-0,0,-0.168,-0,0,-0.168,-0,0,-0.168,-0,0,-0.168,-0,0,-0.168,-0,-0.1328,0.424
0,-0.208,-0,0,-0.208,-0,0,-0.208,-0,0,-0.208,-0,0,-0.208,-0,0,-0.208,-0,-0.1776,0.432
0.216,0.288,3,0.136,0.184,2.8333,0.096,0.128,3,0,0.032,0,0,0.032,0,0,0.032,0,0.0928,0.2144
0.384,0.312,-5.3333,0.144,0.072,-2,0.096,0.024,-1.3333,0.032,-0.04,-0.44444,0,-0.072,-0,0,-0.072,-0,-0.1952,0.4496
0.136,0.2,2.125,0.024,0.032,3,0,0.008,0,0,0.008,0,0,0.008,0,0,0.008,0,0.08,0.1728
0,0.088,0,0,0.088,0,0,0.088,0,0,0.088,0,0,0.088,0,0,0.088,0,0.0832,0.1696
0,0.2,0,0,0.2,0,0,0.2,0,0,0.2,0,0,0.2,0,0,0.2,0,0.0784,0.1648
0.088,0.128,2.2,0.048,0.072,2,0.024,0.032,3,0,0.008,0,0,0.008,0,0,0.008,0,0.0928,0.2256
0,-0.04,-0,0,-0.04,-0,0,-0.04,-0,0,-0.04,-0,0,-0.04,-0,0,-0.04,-0,0.0848,0.168
0.168,0.216,3.5,0.08,0.128,1.6667,0,0.048,0,0,0.048,0,0,0.048,0,0,0.048,0,0.0736,0.2048
0,0.016,0,0,0.016,0,0,0.016,0,0,0.016,0,0,0.016,0,0,0.016,0,0.0656,0.1728
0,0.032,0,0,0.032,0,0,0.032,0,0,0.032,0,0,0.032,0,0,0.032,0,0.0848,0.152
0.072,0.12,1.5,0,0.048,0,0,0.048,0,0,0.048,0,0,0.048,0,0,0.048,0,0.08,0.16
0,-0.12,-0,0,-0.12,-0,0,-0.12,-0,0,-0.12,-0,0,-0.12,-0,0,-0.12,-0,-0.168,0.4352
-0.224,-0.152,-3.1111,0.04,0.064,1.6667,0,0.024,0,0,0.024,0,0,0.024,0,0,0.024,0,0.0864,0.1584
0,0.064,0,0,0.064,0,0,0.064,0,0,0.064,0,0,0.064,0,0,0.064,0,0.1024,0.1328
0.12,0.176,2.1429,0.048,0.104,0.85714,0,0.056,0,0,0.056,0,0,0.056,0,0,0.056,0,0.0752,0.1664
0,0.04,0,0,0.04,0,0,0.04,0,0,0.04,0,0,0.04,0,0,0.04,0,-0.1584,0.4208
0.032,0.056,1.3333,0,0.024,0,0,0.024,0,0,0.024,0,0,0.024,0,0,0.024,0,0.0752,0.2064
0.088,-0.304,-0.22449,0.04,-0.352,-0.10204,0.016,-0.376,-0.040816,0,-0.392,-0,0,-0.392,-0,0,-0.392,-0,-0.1968,0.4816
0.2,0.264,3.125,0.104,0.144,2.6,0.064,0.096,2,0,0.032,0,0,0.032,0,0,0.032,0,0.0736,0.1952
0.12,0.112,-15,0.072,0.064,-9,0.04,0.032,-5,0,-0.008,-0,0,-0.008,-0,0,-0.008,-0,-0.1632,0.384
0,-0.072,-0,0,-0.072,-0,0,-0.072,-0,0,-0.072,-0,0,-0.072,-0,0,-0.072,-0,-0.1504,0.4512
0.144,0.048,-1.5,0.08,-0.016,-0.83333,0.048,-0.048,-0.5,0,-0.096,-0,0,-0.096,-0,0,-0.096,-0,-0.192,0.464
-0.144,-0.072,-2,0.136,0.192,2.4286,0.088,0.136,1.8333,0.024,0.04,1.5,0,0.016,0,0,0.016,0,0.0768,0.1856
0.16,0.224,2.5,0.104,0.152,2.1667,0.08,0.112,2.5,0,0.032,0,0,0.032,0,0,0.032,0,0.0896,0.176
0.168,0.232,2.625,0.112,0.16,2.3333,0.072,0.104,2.25,0,0.032,0,0,0.032,0,0,0.032,0,0.0992,0.264
0,0.04,0,0,0.04,0,0,0.04,0,0,0.04,0,0,0.04,0,0,0.04,0,-0.1264,0.4112
0.104,0.096,-13,0.056,0.048,-7,0.032,0.024,-4,0,-0.008,-0,0,-0.008,-0,0,-0.008,-0,-0.1664,0.4016
-0.192,-0.008,-1.0435,-0.192,-0.008,-1.0435,-0.192,-0.008,-1.0435,-0.192,-0.008,-1.0435,0,0.184,0,0,0.184,0,-0.2432,0.6608
0,-0.072,-0,0,-0.072,-0,0,-0.072,-0,0,-0.072,-0,0,-0.072,-0,0,-0.072,-0,-0.1584,0.544
0,-0.048,-0,0,-0.048,-0,0,-0.048,-0,0,-0.048,-0,0,-0.048,-0,0,-0.048,-0,-0.1504,0.4176
0,0.224,0,0,0.224,0,0,0.224,0,0,0.224,0,0,0.224,0,0,0.224,0,0.1072,0.12
0.112,0.152,2.8,0.056,0.08,2.3333,0.032,0.04,4,0,0.008,0,0,0.008,0,0,0.008,0,0.0752,0.2224
0.136,0.184,2.8333,0.088,0.12,2.75,0.056,0.08,2.3333,0,0.024,0,0,0.024,0,0,0.024,0,0.0928,0.2848
0.192,0.024,-1.1429,0.192,0.024,-1.1429,0.192,0.024,-1.1429,0.192,0.024,-1.1429,0,-0.168,-0,0,-0.168,-0,-0.2864,0.7008
0,0.096,0,0,0.096,0,0,0.096,0,0,0.096,0,0,0.096,0,0,0.096,0,0.1024,0.1312
0.016,0.032,1,0,0.016,0,0,0.016,0,0,0.016,0,0,0.016,0,0,0.016,0,0.0992,0.1744
0,0.064,0,0,0.064,0,0,0.064,0,0,0.064,0,0,0.064,0,0,0.064,0,0.08,0.1648
0.344,0.424,4.3,0.152,0.208,2.7143,0.112,0.152,2.8,0.024,0.04,1.5,0,0.016,0,0,0.016,0,0.0752,0.216
0.072,0.104,2.25,0,0.032,0,0,0.032,0,0,0.032,0,0,0.032,0,0,0.032,0,0.1136,0.336
0.312,0.352,7.8,0.312,0.352,7.8,0.064,0.104,1.6,0,0.04,0,0,0.04,0,0,0.04,0,0.0704,0.1776
0.128,0.176,2.6667,0.064,0.088,2.6667,0,0.024,0,0,0.024,0,0,0.024,0,0,0.024,0,0.1168,0.3232
0.16,0.224,2.5,0.104,0.144,2.6,0.072,0.096,3,0,0.024,0,0,0.024,0,0,0.024,0,0.104,0.2368
0,-0.096,-0,0,-0.096,-0,0,-0.096,-0,0,-0.096,-0,0,-0.096,-0,0,-0.096,-0,-0.1184,0.3472
0.104,0.056,-2.1667,0.056,0.008,-1.1667,0.024,-0.024,-0.5,0,-0.048,-0,0,-0.048,-0,0,-0.048,-0,-0.1456,0.36
0.136,0.2,2.125,0.096,0.144,2,0.072,0.104,2.25,0,0.032,0,0,0.032,0,0,0.032,0,0.128,0.1472
0.056,0.056,Inf,0,0,NaN,0,0,NaN,0,0,NaN,0,0,NaN,0,0,NaN,-0.1904,0.4688
0.056,0.08,2.3333,0,0.024,0,0,0.024,0,0,0.024,0,0,0.024,0,0,0.024,0,0.0928,0.2912
0.264,0.08,-1.4348,0.12,-0.064,-0.65217,0.08,-0.104,-0.43478,0,-0.184,-0,0,-0.184,-0,0,-0.184,-0,-0.2736,0.5968
0.368,0.288,-4.6,0.168,0.088,-2.1,0.128,0.048,-1.6,0.056,-0.024,-0.7,0,-0.08,-0,0,-0.08,-0,-0.2128,0.4928
0.16,0.08,-2,0.096,0.016,-1.2,0.064,-0.016,-0.8,0,-0.08,-0,0,-0.08,-0,0,-0.08,-0,-0.2,0.488
0.072,0.088,4.5,0,0.016,0,0,0.016,0,0,0.016,0,0,0.016,0,0,0.016,0,0.0784,0.176
0.152,0.208,2.7143,0.08,0.12,2,0.048,0.072,2,0,0.024,0,0,0.024,0,0,0.024,0,0.0944,0.1984
0,-0.016,-0,0,-0.016,-0,0,-0.016,-0,0,-0.016,-0,0,-0.016,-0,0,-0.016,-0,0.1184,0.184
0,-0.16,-0,0,-0.16,-0,0,-0.16,-0,0,-0.16,-0,0,-0.16,-0,0,-0.16,-0,-0.3024,0.712
0.176,0.224,3.6667,0.048,0.072,2,0,0.024,0,0,0.024,0,0,0.024,0,0,0.024,0,0.1008,0.3632
0,0.064,0,0.04,0.072,1.25,0,0.032,0,0,0.032,0,0,0.032,0,0,0.032,0,0.104,0.2368
0.168,0.112,-3,0.12,0.064,-2.1429,0.096,0.04,-1.7143,0,-0.056,-0,0,-0.056,-0,0,-0.056,-0,-0.2656,0.56
0,-0.144,-0,0,-0.144,-0,0,-0.144,-0,0,-0.144,-0,0,-0.144,-0,0,-0.144,-0,-0.208,0.5008
0.104,0.152,2.1667,0.048,0.072,2,0,0.024,0,0,0.024,0,0,0.024,0,0,0.024,0,0.0976,0.184
0,-0.04,-0,0,-0.04,-0,0,-0.04,-0,0,-0.04,-0,0,-0.04,-0,0,-0.04,-0,0.0992,0.1744
0,0.16,0,0,0.16,0,0,0.16,0,0,0.16,0,0,0.16,0,0,0.16,0,0.1168,0.152
0,0.16,0,0,0.16,0,0,0.16,0,0,0.16,0,0,0.16,0,0,0.16,0,0.152,0.1168
0.144,0.232,1.6364,0.096,0.152,1.7143,0.072,0.112,1.8,0,0.04,0,0,0.04,0,0,0.04,0,0.1184,0.1632
0.128,0.208,1.6,0.072,0.128,1.2857,0.032,0.048,2,0,0.016,0,0,0.016,0,0,0.016,0,0.1136,0.2704
0,-0.056,-0,0,-0.056,-0,0,-0.056,-0,0,-0.056,-0,0,-0.056,-0,0,-0.056,-0,0.1024,0.1584
0,-0.072,-0,0,-0.072,-0,0,-0.072,-0,0,-0.072,-0,0,-0.072,-0,0,-0.072,-0,0.1376,0.1232
0.112,0.168,2,0.056,0.096,1.4,0.024,0.048,1,0,0.024,0,0,0.024,0,0,0.024,0,0.096,0.1632
0,0.168,0,0,0.168,0,0,0.168,0,0,0.168,0,0,0.168,0,0,0.168,0,0.0992,0.1792
0,-0.08,-0,0,-0.08,-0,0,-0.08,-0,0,-0.08,-0,0,-0.08,-0,0,-0.08,-0,-0.1824,0.5168
0,0.096,0,0,0.096,0,0,0.096,0,0,0.096,0,0,0.096,0,0,0.096,0,0.1216,0.1536
0,-0.064,-0,0,-0.064,-0,0,-0.064,-0,0,-0.064,-0,0,-0.064,-0,0,-0.064,-0,-0.168,0.4048
0.184,0.24,3.2857,0.072,0.104,2.25,0,0.032,0,0,0.032,0,0,0.032,0,0,0.032,0,0.0944,0.3616
0.296,0.36,4.625,0.12,0.16,3,0.064,0.088,2.6667,0,0.024,0,0,0.024,0,0,0.024,0,0.112,0.3744
0.152,0.016,-1.1176,0.08,-0.056,-0.58824,0.056,-0.08,-0.41176,0,-0.136,-0,0,-0.136,-0,0,-0.136,-0,-0.2464,0.6384
0.072,0.112,1.8,0.024,0.032,3,0,0.008,0,0,0.008,0,0,0.008,0,0,0.008,0,0.1168,0.3152
0.016,-0.032,-0.33333,0,-0.048,-0,0,-0.048,-0,0,-0.048,-0,0,-0.048,-0,0,-0.048,-0,-0.272,0.68
0.2,0.256,3.5714,0.104,0.144,2.6,0.048,0.072,2,0,0.024,0,0,0.024,0,0,0.024,0,0.1056,0.3488
0.016,0.024,2,0,0.008,0,0,0.008,0,0,0.008,0,0,0.008,0,0,0.008,0,0.104,0.2384
0.24,0.176,-3.75,0.112,0.048,-1.75,0.064,0,-1,0,-0.064,-0,0,-0.064,-0,0,-0.064,-0,-0.3056,0.6544
0.16,0.24,2,0.096,0.152,1.7143,0.064,0.104,1.6,0,0.04,0,0,0.04,0,0,0.04,0,0.0944,0.208
0,0,NaN,0,0,NaN,0,0,NaN,0,0,NaN,0,0,NaN,0,0,NaN,0.0848,0.1904
0,0.008,0,0,0.008,0,0,0.008,0,0,0.008,0,0,0.008,0,0,0.008,0,0.0816,0.1984
0.064,-0.032,-0.66667,0,-0.096,-0,0,-0.096,-0,0,-0.096,-0,0,-0.096,-0,0,-0.096,-0,-0.168,0.4416
0.072,0.128,1.2857,0.024,0.08,0.42857,0,0.056,0,0,0.056,0,0,0.056,0,0,0.056,0,0.0832,0.136
-0.12,0.04,-0.75,0,0.16,0,0,0.16,0,0,0.16,0,0,0.16,0,0,0.16,0,0.104,0.2192
0.184,0.248,2.875,0.128,0.168,3.2,0.032,0.048,2,0,0.016,0,0,0.016,0,0,0.016,0,0.0944,0.2384
0.136,0.176,3.4,0.048,0.072,2,0.024,0.032,3,0,0.008,0,0,0.008,0,0,0.008,0,0.0784,0.216
0.096,0.184,1.0909,0.048,0.096,1,0,0.048,0,0,0.048,0,0,0.048,0,0,0.048,0,0.136,0.2656
0.032,-0.296,-0.097561,0,-0.328,-0,0,-0.328,-0,0,-0.328,-0,0,-0.328,-0,0,-0.328,-0,-0.2848,0.696
0.344,0.472,2.6875,0.152,0.216,2.375,0.088,0.144,1.5714,0.032,0.056,1.3333,0,0.024,0,0,0.024,0,0.1152,0.2336
-0.376,-0.272,-3.6154,-0.376,-0.272,-3.6154,-0.376,-0.272,-3.6154,0.176,0.24,2.75,0,0.064,0,0,0.064,0,0.0736,0.2416
0,-0.424,-0,0,-0.424,-0,0,-0.424,-0,0,-0.424,-0,0,-0.424,-0,0,-0.424,-0,-0.2208,0.5376
0,-0.16,-0,0,-0.16,-0,0,-0.16,-0,0,-0.16,-0,0,-0.16,-0,0,-0.16,-0,0.08,0.1776
0.048,0.096,1,0.072,0.112,1.8,0.04,0.064,1.6667,0,0.024,0,0,0.024,0,0,0.024,0,0.0816,0.272
0.136,0.168,4.25,0.024,0.032,3,0,0.008,0,0,0.008,0,0,0.008,0,0,0.008,0,0.0944,0.2768
0.128,0.176,2.6667,0.056,0.104,1.1667,0,0.048,0,0,0.048,0,0,0.048,0,0,0.048,0,0.08,0.2752
0.224,0.048,-1.2727,0.224,0.048,-1.2727,0.632,0.456,-3.5909,0.16,-0.016,-0.90909,0,-0.176,-0,0,-0.176,-0,-0.248,0.5536
0.072,0.104,2.25,0.024,0.04,1.5,0,0.016,0,0,0.016,0,0,0.016,0,0,0.016,0,0.1056,0.3152
0.288,0.16,-2.25,0.136,0.008,-1.0625,0.096,-0.032,-0.75,0,-0.128,-0,0,-0.128,-0,0,-0.128,-0,-0.6432,1.3968
0,0,NaN,0,0,NaN,0,0,NaN,0,0,NaN,0,0,NaN,0,0,NaN,0.0992,0.2224
0.04,0.064,1.6667,0,0.024,0,0,0.024,0,0,0.024,0,0,0.024,0,0,0.024,0,0.0976,0.3168
0.08,-0.048,-0.625,0.032,-0.096,-0.25,0,-0.128,-0,0,-0.128,-0,0,-0.128,-0,0,-0.128,-0,-0.4256,1.0544
0.024,0.04,1.5,0.024,0.04,1.5,0.592,0.608,37,0.352,0.368,22,0.216,0.232,13.5,0.192,0.208,12,0.1104,0.4272
0.224,0.232,28,0.112,0.12,14,0.072,0.08,9,0,0.008,0,0,0.008,0,0,0.008,0,-0.3584,0.8784
-0.296,-0.192,-2.8462,0,0.104,0,0,0.104,0,0,0.104,0,0,0.104,0,0,0.104,0,0.168,0.3408
0.272,0.464,1.4167,0.16,0.304,1.1111,0.096,0.208,0.85714,0,0.112,0,0,0.112,0,0,0.112,0,0.2256,0.5248
0.928,0.112,-1.1373,0.928,0.112,-1.1373,0.328,-0.488,-0.40196,0.112,-0.704,-0.13725,0,-0.816,-0,0,-0.816,-0,-0.4,0.9584
0.08,-0.704,-0.10204,0,-0.784,-0,0,-0.784,-0,0,-0.784,-0,0,-0.784,-0,0,-0.784,-0,-0.1616,0.4272
0.12,-0.632,-0.15957,0.08,-0.672,-0.10638,0.048,-0.704,-0.06383,0,-0.752,-0,0,-0.752,-0,0,-0.752,-0,-0.1696,0.4336
0.088,-0.696,-0.11224,0.04,-0.744,-0.05102,0,-0.784,-0,0,-0.784,-0,0,-0.784,-0,0,-0.784,-0,-0.1568,0.4208
0.336,-0.36,-0.48276,0.312,-0.384,-0.44828,0.048,-0.648,-0.068966,0,-0.696,-0,0,-0.696,-0,0,-0.696,-0,-0.1328,0.4176
-0.184,-0.128,-3.2857,0,0.056,0,0,0.056,0,0,0.056,0,0,0.056,0,0,0.056,0,0.1392,0.1312
0.216,0.008,-1.0385,0.112,-0.096,-0.53846,0.064,-0.144,-0.30769,0,-0.208,-0,0,-0.208,-0,0,-0.208,-0,-0.16,0.4016
-0.216,-0.04,-1.2273,-0.216,-0.112,-2.0769,0.096,0.176,1.2,0.032,0.064,1,0,0.032,0,0,0.032,0,0.1456,0.2048
0,-0.04,-0,0,-0.04,-0,0,-0.04,-0,0,-0.04,-0,0,-0.04,-0,0,-0.04,-0,0.2016,0.376
0.088,0.016,-1.2222,0.056,-0.016,-0.77778,0.032,-0.04,-0.44444,0,-0.072,-0,0,-0.072,-0,0,-0.072,-0,-0.2,0.5328
0.04,-0.104,-0.27778,0,-0.144,-0,0,-0.144,-0,0,-0.144,-0,0,-0.144,-0,0,-0.144,-0,-0.1776,0.4944
0.072,0.128,1.2857,0.032,0.056,1.3333,0,0.024,0,0,0.024,0,0,0.024,0,0,0.024,0,0.1248,0.1872
0,-0.048,-0,0,-0.048,-0,0,-0.048,-0,0,-0.048,-0,0,-0.048,-0,0,-0.048,-0,-0.176,0.4784
0.12,0.064,-2.1429,0.056,0,-1,0.008,-0.048,-0.14286,0,-0.056,-0,0,-0.056,-0,0,-0.056,-0,-0.1744,0.48
0,-0.008,-0,0,-0.008,-0,0,-0.008,-0,0,-0.008,-0,0,-0.008,-0,0,-0.008,-0,0.1488,0.216
0.096,-0.032,-0.75,0.048,-0.08,-0.375,0,-0.128,-0,0,-0.128,-0,0,-0.128,-0,0,-0.128,-0,-0.1584,0.4176
0.024,-0.128,-0.15789,0.024,-0.128,-0.15789,0.112,-0.04,-0.73684,0,-0.152,-0,0,-0.152,-0,0,-0.152,-0,-0.192,0.512
0,-0.136,-0,0,-0.136,-0,0,-0.136,-0,0,-0.136,-0,0,-0.136,-0,0,-0.136,-0,-0.1808,0.4976
0.128,0.208,1.6,0.088,0.144,1.5714,0.056,0.096,1.4,0,0.04,0,0,0.04,0,0,0.04,0,0.1344,0.1936
0.096,0.184,1.0909,0.056,0.104,1.1667,0.032,0.056,1.3333,0,0.024,0,0,0.024,0,0,0.024,0,0.1392,0.2208
0,0.032,0,0,0.032,0,0,0.032,0,0,0.032,0,0,0.032,0,0,0.032,0,0.1264,0.2576
0.072,-0.016,-0.81818,0.032,-0.056,-0.36364,0,-0.088,-0,0,-0.088,-0,0,-0.088,-0,0,-0.088,-0,-0.1296,0.4288
0.056,-0.048,-0.53846,0.016,-0.088,-0.15385,0,-0.104,-0,0,-0.104,-0,0,-0.104,-0,0,-0.104,-0,-0.3008,0.72
0.104,0.16,1.8571,0.064,0.096,2,0.04,0.064,1.6667,0,0.024,0,0,0.024,0,0,0.024,0,0.1216,0.3856
0.104,0.16,1.8571,0.064,0.096,2,0.04,0.064,1.6667,0,0.024,0,0,0.024,0,0,0.024,0,0.1216,0.3856
0,-0.088,-0,0,-0.088,-0,0,-0.088,-0,0,-0.088,-0,0,-0.088,-0,0,-0.088,-0,0.0736,0.1408
0.096,-0.032,-0.75,0.064,-0.064,-0.5,0.04,-0.088,-0.3125,0,-0.128,-0,0,-0.128,-0,0,-0.128,-0,-0.2048,0.4928
0.08,-0.04,-0.66667,0.04,-0.08,-0.33333,0,-0.12,-0,0,-0.12,-0,0,-0.12,-0,0,-0.12,-0,-0.1728,0.4432
0,-0.056,-0,0,-0.056,-0,0,-0.056,-0,0,-0.056,-0,0,-0.056,-0,0,-0.056,-0,0.1072,0.2144
0,-0.08,-0,0,-0.08,-0,0,-0.08,-0,0,-0.08,-0,0,-0.08,-0,0,-0.08,-0,-0.1808,0.504
0.072,0.12,1.5,0.04,0.072,1.25,0.016,0.032,1,0,0.016,0,0,0.016,0,0,0.016,0,0.1088,0.1456
0,0.168,0,0,0.168,0,0,0.168,0,0,0.168,0,0,0.168,0,0,0.168,0,0.0864,0.1024
0.072,0.12,1.5,0.032,0.056,1.3333,0,0.024,0,0,0.024,0,0,0.024,0,0,0.024,0,0.1168,0.1744
0.112,0.168,2,0.072,0.112,1.8,0.048,0.072,2,0,0.024,0,0,0.024,0,0,0.024,0,0.1392,0.2592
0,0.104,0,0,0.104,0,0,0.104,0,0,0.104,0,0,0.104,0,0,0.104,0,0.1104,0.2176
0.104,0.168,1.625,0.064,0.112,1.3333,0.04,0.072,1.25,0,0.032,0,0,0.032,0,0,0.032,0,0.1088,0.2176
0.024,0.048,1,0,0.024,0,0,0.024,0,0,0.024,0,0,0.024,0,0,0.024,0,0.1456,0.1968
0.08,0.136,1.4286,0.032,0.056,1.3333,0,0.024,0,0,0.024,0,0,0.024,0,0,0.024,0,0.128,0.2176
0,0.008,0,0,0.008,0,0,0.008,0,0,0.008,0,0,0.008,0,0,0.008,0,0.1152,0.184
0,0.024,0,0,0.024,0,0,0.024,0,0,0.024,0,0,0.024,0,0,0.024,0,0.1424,0.232
0.072,0.12,1.5,0.024,0.04,1.5,0,0.016,0,0,0.016,0,0,0.016,0,0,0.016,0,0.12,0.2112
0.144,0.072,-2,0.104,0.032,-1.4444,0.072,0,-1,0,-0.072,-0,0,-0.072,-0,0,-0.072,-0,-0.256,0.6176
0,-0.136,-0,0,-0.136,-0,0,-0.136,-0,0,-0.136,-0,0,-0.136,-0,0,-0.136,-0,-0.1456,0.4112
0,0.072,0,0,0.072,0,0,0.072,0,0,0.072,0,0,0.072,0,0,0.072,0,0.112,0.1616
0,-0.088,-0,0,-0.088,-0,0,-0.088,-0,0,-0.088,-0,0,-0.088,-0,0,-0.088,-0,-0.2064,0.544
0.088,0.128,2.2,0.048,0.072,2,0,0.024,0,0,0.024,0,0,0.024,0,0,0.024,0,0.1152,0.184
0,0.008,0,0,0.008,0,0,0.008,0,0,0.008,0,0,0.008,0,0,0.008,0,0.0736,0.1488
0,0.136,0,0,0.136,0,0,0.136,0,0,0.136,0,0,0.136,0,0,0.136,0,0.1136,0.1968
0,-0.176,-0,0,-0.176,-0,0,-0.176,-0,0,-0.176,-0,0,-0.176,-0,0,-0.176,-0,-0.1712,0.4384
0.104,0.16,1.8571,0.056,0.096,1.4,0.032,0.056,1.3333,0,0.024,0,0,0.024,0,0,0.024,0,0.088,0.1456
0.096,0.152,1.7143,0.056,0.096,1.4,0.024,0.04,1.5,0,0.016,0,0,0.016,0,0,0.016,0,0.1184,0.2304
