0.224,0.352,1.75,0.072,0.16,0.81818,0.056,0.128,0.77778,0.016,0.024,2,0,0.008,0,0,0.008,0,0.1184,0.2496
0.064,0.104,1.6,0.024,0.048,1,0,0.024,0,0,0.024,0,0,0.024,0,0,0.024,0,0.1152,0.208
0.056,0.088,1.75,0,0.032,0,0,0.032,0,0,0.032,0,0,0.032,0,0,0.032,0,0.1136,0.2096
0,-0.232,-0,0,-0.232,-0,0,-0.232,-0,0,-0.232,-0,0,-0.232,-0,0,-0.232,-0,-0.2016,0.536
0,-0.208,-0,0,-0.208,-0,0,-0.208,-0,0,-0.208,-0,0,-0.208,-0,0,-0.208,-0,0.0864,0.136
0.216,0.304,2.4545,0.088,0.144,1.5714,0.064,0.112,1.3333,0.016,0.024,2,0,0.008,0,0,0.008,0,0.112,0.2512
0.112,0.072,-2.8,0.08,0.04,-2,0.064,0.024,-1.6,0,-0.04,-0,0,-0.04,-0,0,-0.04,-0,-0.1392,0.3632
0.096,-0.04,-0.70588,0.048,-0.088,-0.35294,0,-0.136,-0,0,-0.136,-0,0,-0.136,-0,0,-0.136,-0,-0.2208,0.5216
0.408,0.352,-7.2857,0.112,0.056,-2,0.088,0.032,-1.5714,0.032,-0.024,-0.57143,0,-0.056,-0,0,-0.056,-0,-0.1872,0.5136
0.424,0.336,-4.8182,0.096,0.008,-1.0909,0.072,-0.016,-0.81818,0.04,-0.048,-0.45455,0,-0.088,-0,0,-0.088,-0,-0.1792,0.5008
0.072,0.12,1.5,0.04,0.072,1.25,0.016,0.032,1,0,0.016,0,0,0.016,0,0,0.016,0,0.12,0.1744
0.208,0.312,2,0.144,0.208,2.25,0.096,0.144,2,0.04,0.056,2.5,0,0.016,0,0,0.016,0,0.112,0.2112
0.16,0.264,1.5385,0.12,0.224,1.1538,0.104,0.176,1.4444,0.064,0.104,1.6,0,0.04,0,0,0.04,0,0.1072,0.1584
0.048,0.08,1.5,0,0.032,0,0,0.032,0,0,0.032,0,0,0.032,0,0,0.032,0,0.1104,0.136
0.08,0.128,1.6667,0.032,0.056,1.3333,0,0.024,0,0,0.024,0,0,0.024,0,0,0.024,0,0.1072,0.136
0,-0.024,-0,0,-0.024,-0,0,-0.024,-0,0,-0.024,-0,0,-0.024,-0,0,-0.024,-0,0.1056,0.1344
0.12,0.216,1.25,0.088,0.144,1.5714,0.072,0.112,1.8,0.024,0.032,3,0,0.008,0,0,0.008,0,0.1024,0.1504
0.104,0.104,Inf,0.072,0.072,Inf,0.056,0.056,Inf,0,0,NaN,0,0,NaN,0,0,NaN,-0.1584,0.4352
0,0.264,0,0,0.264,0,0,0.264,0,0,0.264,0,0,0.264,0,0,0.264,0,0.1104,0.1584
0,0.056,0,0,0.056,0,0,0.056,0,0,0.056,0,0,0.056,0,0,0.056,0,0.0976,0.0928
0.04,0.104,0.625,0.064,0.112,1.3333,0.04,0.072,1.25,0,0.032,0,0,0.032,0,0,0.032,0,0.1056,0.1296
0.328,0.336,41,0.072,0.08,9,0.048,0.056,6,0,0.008,0,0,0.008,0,0,0.008,0,-0.1296,0.3776
0.04,0.032,-5,0,-0.008,-0,0,-0.008,-0,0,-0.008,-0,0,-0.008,-0,0,-0.008,-0,-0.1296,0.3744
0.032,0.056,1.3333,0,0.024,0,0,0.024,0,0,0.024,0,0,0.024,0,0,0.024,0,0.1072,0.1296
0.136,0.224,1.5455,0.096,0.184,1.0909,0.08,0.144,1.25,0.04,0.064,1.6667,0,0.024,0,0,0.024,0,0.1008,0.1456
0.2,0.296,2.0833,0.112,0.208,1.1667,0.088,0.184,0.91667,0.04,0.08,1,0,0.04,0,0,0.04,0,0.1168,0.2096
0,-0.12,-0,0,-0.12,-0,0,-0.12,-0,0,-0.12,-0,0,-0.12,-0,0,-0.12,-0,-0.1024,0.3568
0,-0.112,-0,0,-0.112,-0,0,-0.112,-0,0,-0.112,-0,0,-0.112,-0,0,-0.112,-0,-0.1296,0.36
0.12,0.008,-1.0714,0.08,-0.032,-0.71429,0.056,-0.056,-0.5,0,-0.112,-0,0,-0.112,-0,0,-0.112,-0,-0.1408,0.4096
0.08,-0.04,-0.66667,0.04,-0.08,-0.33333,0.008,-0.112,-0.066667,0,-0.12,-0,0,-0.12,-0,0,-0.12,-0,-0.16,0.4752
0.128,0.232,1.2308,0.088,0.152,1.375,0.072,0.12,1.5,0.024,0.032,3,0,0.008,0,0,0.008,0,0.1136,0.1776
0,0.136,0,0,0.136,0,0,0.136,0,0,0.136,0,0,0.136,0,0,0.136,0,0.112,0.1472
0,0.024,0,0,0.024,0,0,0.024,0,0,0.024,0,0,0.024,0,0,0.024,0,0.1456,0.2032
0,-0.072,-0,0,-0.072,-0,0,-0.072,-0,0,-0.072,-0,0,-0.072,-0,0,-0.072,-0,-0.1408,0.3744
0.096,-0.008,-0.92308,0.064,-0.04,-0.61538,0.048,-0.056,-0.46154,0,-0.104,-0,0,-0.104,-0,0,-0.104,-0,-0.1664,0.424
-0.096,-0.008,-1.0909,0.088,0.144,1.5714,0.072,0.12,1.5,0,0.048,0,0,0.048,0,0,0.048,0,0.1056,0.1616
0,-0.064,-0,0,-0.064,-0,0,-0.064,-0,0,-0.064,-0,0,-0.064,-0,0,-0.064,-0,-0.208,0.5184
0,0.136,0,0,0.136,0,0,0.136,0,0,0.136,0,0,0.136,0,0,0.136,0,0.1168,0.1536
0.12,0.136,7.5,0.136,0.152,8.5,0.104,0.12,6.5,0.048,0.064,3,0,0.016,0,0,0.016,0,-0.1504,0.3952
0.088,0.016,-1.2222,0.088,0.016,-1.2222,0.088,0.016,-1.2222,0.08,0.008,-1.1111,0.016,-0.056,-0.22222,0,-0.072,-0,-0.152,0.3984
-0.016,-0.072,0.28571,0.112,0.056,-2,0.088,0.032,-1.5714,0.04,-0.016,-0.71429,0,-0.056,-0,0,-0.056,-0,-0.1792,0.4336
0.408,0.336,-5.6667,0.24,0.168,-3.3333,0.2,0.128,-2.7778,0.144,0.072,-2,0,-0.072,-0,0,-0.072,-0,-0.2144,0.6
-0.12,-0.048,-1.6667,0.088,0.144,1.5714,0.072,0.112,1.8,0,0.04,0,0,0.04,0,0,0.04,0,0.1056,0.168
0.104,0.064,-2.6,0.056,0.016,-1.4,0.016,-0.024,-0.4,0,-0.04,-0,0,-0.04,-0,0,-0.04,-0,-0.2928,0.6592
0.568,0.536,-17.75,0.072,0.04,-2.25,0.048,0.016,-1.5,0,-0.032,-0,0,-0.032,-0,0,-0.032,-0,-0.2112,0.5344
0,0.048,0,0,0.048,0,0,0.048,0,0,0.048,0,0,0.048,0,0,0.048,0,0.1504,0.2512
0.104,0.048,-1.8571,0.04,-0.016,-0.71429,0,-0.056,-0,0,-0.056,-0,0,-0.056,-0,0,-0.056,-0,-0.3136,0.6944
0,-0.056,-0,0,-0.056,-0,0,-0.056,-0,0,-0.056,-0,0,-0.056,-0,0,-0.056,-0,-0.2384,0.6784
0.288,0.296,36,0.096,0.104,12,0.056,0.064,7,0,0.008,0,0,0.008,0,0,0.008,0,-0.304,0.6736
0.408,0.512,3.9231,0.344,0.448,3.3077,0.264,0.368,2.5385,0.088,0.144,1.5714,0,0.056,0,0,0.056,0,0.1248,0.3136
0.616,0.488,-4.8125,0.056,-0.072,-0.4375,0.024,-0.104,-0.1875,0,-0.128,-0,0,-0.128,-0,0,-0.128,-0,-0.2576,0.7232
0.04,0.064,1.6667,0,0.024,0,0,0.024,0,0,0.024,0,0,0.024,0,0,0.024,0,0.1232,0.264
0.416,0.424,52,0.168,0.176,21,0.12,0.128,15,0.048,0.056,6,0,0.008,0,0,0.008,0,-0.2352,0.6336
0.192,0.112,-2.4,0.088,0.008,-1.1,0.056,-0.024,-0.7,0,-0.08,-0,0,-0.08,-0,0,-0.08,-0,-0.3456,0.7408
0.024,0.032,3,0,0.008,0,0,0.008,0,0,0.008,0,0,0.008,0,0,0.008,0,0.1072,0.2432
0.392,-0.192,-0.67123,0.144,-0.44,-0.24658,0.112,-0.472,-0.19178,0.04,-0.544,-0.068493,0,-0.584,-0,0,-0.584,-0,-0.2448,0.6544
0.088,-0.496,-0.15068,0.024,-0.56,-0.041096,0,-0.584,-0,0,-0.584,-0,0,-0.584,-0,0,-0.584,-0,-0.2336,0.5168
-0.12,-0.584,0.25862,0.368,-0.096,-0.7931,0.328,-0.136,-0.7069,0.064,-0.4,-0.13793,0,-0.464,-0,0,-0.464,-0,-0.2272,0.6352
0,-0.264,-0,0,-0.264,-0,0,-0.264,-0,0,-0.264,-0,0,-0.264,-0,0,-0.264,-0,0.112,0.1488
0.36,0.48,3,0.248,0.368,2.0667,0.144,0.224,1.8,0.072,0.112,1.8,0,0.04,0,0,0.04,0,0.1216,0.296
0,-0.088,-0,0,-0.088,-0,0,-0.088,-0,0,-0.088,-0,0,-0.088,-0,0,-0.088,-0,-0.232,0.68
0,0.08,0,0,0.08,0,0,0.08,0,0,0.08,0,0,0.08,0,0,0.08,0,0.1056,0.1408
0.056,0.088,1.75,0,0.032,0,0,0.032,0,0,0.032,0,0,0.032,0,0,0.032,0,0.2048,0.1952
0.616,0.328,-2.1389,0.48,0.192,-1.6667,0.432,0.144,-1.5,0.112,-0.176,-0.38889,0.048,-0.24,-0.16667,0,-0.288,-0,-0.2064,0.6064
0,-0.208,-0,0,-0.208,-0,0,-0.208,-0,0,-0.208,-0,0,-0.208,-0,0,-0.208,-0,0.1712,0.2096
0,-0.288,-0,0,-0.288,-0,0,-0.288,-0,0,-0.288,-0,0,-0.288,-0,0,-0.288,-0,0.1104,0.1632
0.32,-0.048,-0.86957,0.096,-0.272,-0.26087,0.072,-0.296,-0.19565,0.016,-0.352,-0.043478,0,-0.368,-0,0,-0.368,-0,-0.176,0.448
0.072,-0.368,-0.16364,0.072,-0.368,-0.16364,0.072,-0.368,-0.16364,0.08,-0.36,-0.18182,0,-0.44,-0,0,-0.44,-0,-0.1472,0.4176
0,-0.44,-0,0.416,-0.024,-0.94545,0.36,-0.08,-0.81818,0.056,-0.384,-0.12727,0,-0.44,-0,0,-0.44,-0,-0.1488,0.4192
0.544,0.144,-1.36,0.368,-0.032,-0.92,0.08,-0.32,-0.2,0,-0.4,-0,0,-0.4,-0,0,-0.4,-0,-0.1888,0.5056
0.28,-0.008,-0.97222,0.064,-0.224,-0.22222,0,-0.288,-0,0,-0.288,-0,0,-0.288,-0,0,-0.288,-0,-0.2912,0.6496
0.328,0.032,-1.1081,0.272,-0.024,-0.91892,0.072,-0.224,-0.24324,0,-0.296,-0,0,-0.296,-0,0,-0.296,-0,-0.1728,0.5376
0,-0.32,-0,0,-0.32,-0,0,-0.32,-0,0,-0.32,-0,0,-0.32,-0,0,-0.32,-0,0.1056,0.2064
0,-0.32,-0,0,-0.32,-0,0,-0.32,-0,0,-0.32,-0,0,-0.32,-0,0,-0.32,-0,0.1056,0.2064
0.064,-0.32,-0.16667,0.44,0.056,-1.1458,0.344,-0.04,-0.89583,0.096,-0.288,-0.25,0.032,-0.352,-0.083333,0,-0.384,-0,-0.2192,0.5488
0.104,0.16,1.8571,0.064,0.104,1.6,0.032,0.056,1.3333,0,0.024,0,0,0.024,0,0,0.024,0,0.1088,0.2032
0.08,0.128,1.6667,0,0.048,0,0,0.048,0,0,0.048,0,0,0.048,0,0,0.048,0,0.12,0.3664
0.04,0.04,Inf,0,0,NaN,0,0,NaN,0,0,NaN,0,0,NaN,0,0,NaN,0.0736,0.216
0.272,0.368,2.8333,0.16,0.232,2.2222,0.088,0.144,1.5714,0,0.056,0,0,0.056,0,0,0.056,0,0.1712,0.4544
0.136,-0.048,-0.73913,0.072,-0.112,-0.3913,0.04,-0.144,-0.21739,0,-0.184,-0,0,-0.184,-0,0,-0.184,-0,-0.4544,1.0768
0.368,0.488,3.0667,0.168,0.256,1.9091,0.12,0.192,1.6667,0.016,0.032,1,0,0.016,0,0,0.016,0,0.1648,0.4688
0,-0.192,-0,0,-0.192,-0,0,-0.192,-0,0,-0.192,-0,0,-0.192,-0,0,-0.192,-0,0.088,0.3424
0,-0.104,-0,0,-0.104,-0,0,-0.104,-0,0,-0.104,-0,0,-0.104,-0,0,-0.104,-0,0.0928,0.2336
0.104,0.192,1.1818,0.024,0.04,1.5,0,0.016,0,0,0.016,0,0,0.016,0,0,0.016,0,0.16,0.4432
0.208,0.336,1.625,0.104,0.2,1.0833,0.072,0.144,1,0,0.072,0,0,0.072,0,0,0.072,0,0.2256,0.4944
0.208,0.336,1.625,0.104,0.2,1.0833,0.072,0.144,1,0,0.072,0,0,0.072,0,0,0.072,0,0.2256,0.4944
0,0.032,0,0,0.032,0,0,0.032,0,0,0.032,0,0,0.032,0,0,0.032,0,0.2176,0.5152
0.128,0.232,1.2308,0.072,0.144,1,0.04,0.072,1.25,0,0.032,0,0,0.032,0,0,0.032,0,0.232,0.4352
0,-0.16,-0,0,-0.16,-0,0,-0.16,-0,0,-0.16,-0,0,-0.16,-0,0,-0.16,-0,-0.2288,0.6736
0.128,0.224,1.3333,0.056,0.096,1.4,0,0.04,0,0,0.04,0,0,0.04,0,0,0.04,0,0.1888,0.3904
0.072,0.128,1.2857,0,0.056,0,0,0.056,0,0,0.056,0,0,0.056,0,0,0.056,0,0.192,0.4016
0.152,0.192,3.8,0.064,0.104,1.6,0,0.04,0,0,0.04,0,0,0.04,0,0,0.04,0,0.144,0.336
0.104,0.2,1.0833,0.056,0.104,1.1667,0,0.048,0,0,0.048,0,0,0.048,0,0,0.048,0,0.2544,0.4752
0.504,0.528,21,0.504,0.528,21,0.504,0.528,21,0.504,0.528,21,0.144,0.168,6,0.096,0.12,4,0.144,0.3712
-0.072,0.04,-0.64286,0.176,0.256,2.2,0.112,0.16,2.3333,0,0.048,0,0,0.048,0,0,0.048,0,0.1024,0.1952
0.096,0.152,1.7143,0.064,0.104,1.6,0.048,0.072,2,0,0.024,0,0,0.024,0,0,0.024,0,0.12,0.1616
0,0.216,0,0,0.216,0,0,0.216,0,0,0.216,0,0,0.216,0,0,0.216,0,0.0976,0.1728
0.064,0.104,1.6,0,0.04,0,0,0.04,0,0,0.04,0,0,0.04,0,0,0.04,0,0.1472,0.4368
0.224,-0.064,-0.77778,0.136,-0.152,-0.47222,0.096,-0.192,-0.33333,0,-0.288,-0,0,-0.288,-0,0,-0.288,-0,-0.2848,0.7312
0.08,0.136,1.4286,0.016,0.032,1,0,0.016,0,0,0.016,0,0,0.016,0,0,0.016,0,0.168,0.6176
0.088,-0.056,-0.61111,0.032,-0.112,-0.22222,0,-0.144,-0,0,-0.144,-0,0,-0.144,-0,0,-0.144,-0,-0.4752,1.1424
0.096,0.144,2,0.04,0.056,2.5,0,0.016,0,0,0.016,0,0,0.016,0,0,0.016,0,0.1712,0.432
0,-0.384,-0,0,-0.384,-0,0,-0.384,-0,0,-0.384,-0,0,-0.384,-0,0,-0.384,-0,0.1072,0.1328
0.088,0.192,0.84615,0.048,0.112,0.75,0,0.064,0,0,0.064,0,0,0.064,0,0,0.064,0,0.2032,0.4928
0.112,0.208,1.1667,0.072,0.136,1.125,0,0.064,0,0,0.064,0,0,0.064,0,0,0.064,0,0.1696,0.5088
0.128,0.224,1.3333,0.072,0.136,1.125,0.032,0.056,1.3333,0,0.024,0,0,0.024,0,0,0.024,0,0.184,0.5568
0.112,0.184,1.5556,0.056,0.096,1.4,0,0.04,0,0,0.04,0,0,0.04,0,0,0.04,0,0.12,0.3968
0,-0.368,-0,0,-0.368,-0,0,-0.368,-0,0,-0.368,-0,0,-0.368,-0,0,-0.368,-0,0.0528,0.1648
0,-0.32,-0,0,-0.32,-0,0,-0.32,-0,0,-0.32,-0,0,-0.32,-0,0,-0.32,-0,0.0976,0.3424
0.12,0.208,1.3636,0.072,0.128,1.2857,0,0.056,0,0,0.056,0,0,0.056,0,0,0.056,0,0.1648,0.5808
0.088,0.152,1.375,0,0.064,0,0,0.064,0,0,0.064,0,0,0.064,0,0,0.064,0,0.1664,0.376
0.088,0.152,1.375,0,0.064,0,0,0.064,0,0,0.064,0,0,0.064,0,0,0.064,0,0.1664,0.376
0,-0.072,-0,0,-0.072,-0,0,-0.072,-0,0,-0.072,-0,0,-0.072,-0,0,-0.072,-0,0.1104,0.448
0.248,0.384,1.8235,0,0.136,0,0,0.136,0,0,0.136,0,0,0.136,0,0,0.136,0,0.136,0.4544
0,0.328,0,0,0.328,0,0,0.328,0,0,0.328,0,0,0.328,0,0,0.328,0,0.1232,0.3472
0.32,0.344,13.333,0.32,0.344,13.333,0.232,0.256,9.6667,0.088,0.112,3.6667,0.032,0.056,1.3333,0,0.024,0,0.1248,0.392
0,0.168,0,0,0.168,0,0,0.168,0,0,0.168,0,0,0.168,0,0,0.168,0,0.08,0.1936
0.096,0.112,6,0,0.016,0,0,0.016,0,0,0.016,0,0,0.016,0,0,0.016,0,-0.3296,0.7712
0.128,0.192,2,0.04,0.064,1.6667,0,0.024,0,0,0.024,0,0,0.024,0,0,0.024,0,0.1456,0.456
0,-0.336,-0,0,-0.336,-0,0,-0.336,-0,0,-0.336,-0,0,-0.336,-0,0,-0.336,-0,-0.2368,0.5616
0,-0.192,-0,0,-0.192,-0,0,-0.192,-0,0,-0.192,-0,0,-0.192,-0,0,-0.192,-0,0.1104,0.448
0.184,0.232,3.8333,0.128,0.16,4,0.024,0.032,3,0,0.008,0,0,0.008,0,0,0.008,0,0.1232,0.5696
0.16,0.224,2.5,0.104,0.136,3.25,0,0.032,0,0,0.032,0,0,0.032,0,0,0.032,0,0.136,0.4688
0.136,-0.216,-0.38636,0.064,-0.288,-0.18182,0,-0.352,-0,0,-0.352,-0,0,-0.352,-0,0,-0.352,-0,-0.2096,0.5552
0.168,-0.248,-0.40385,0,-0.416,-0,0,-0.416,-0,0,-0.416,-0,0,-0.416,-0,0,-0.416,-0,-0.3664,0.8016
0.168,-0.224,-0.42857,0.096,-0.296,-0.2449,0.016,-0.376,-0.040816,0,-0.392,-0,0,-0.392,-0,0,-0.392,-0,-0.3712,0.8464
0.16,0.224,2.5,0.112,0.16,2.3333,0.072,0.104,2.25,0,0.032,0,0,0.032,0,0,0.032,0,0.1216,0.3584
0.128,0.184,2.2857,0.08,0.112,2.5,0,0.032,0,0,0.032,0,0,0.032,0,0,0.032,0,0.1392,0.4032
0,0.048,0,0,0.048,0,0,0.048,0,0,0.048,0,0,0.048,0,0,0.048,0,0.1072,0.376
0.152,0.208,2.7143,0.096,0.128,3,0.024,0.032,3,0,0.008,0,0,0.008,0,0,0.008,0,0.0992,0.3664
0,0.064,0,0,0.064,0,0,0.064,0,0,0.064,0,0,0.064,0,0,0.064,0,0.0656,0.224
0,0.4,0,0,0.4,0,0,0.4,0,0,0.4,0,0,0.4,0,0,0.4,0,0.1552,0.3152
0.136,0.088,-2.8333,0.064,0.016,-1.3333,0.008,-0.04,-0.16667,0,-0.048,-0,0,-0.048,-0,0,-0.048,-0,-0.2656,0.624
0.208,0.288,2.6,0,0.08,0,0,0.08,0,0,0.08,0,0,0.08,0,0,0.08,0,0.1072,0.32
0.096,0.08,-6,0,-0.016,-0,0,-0.016,-0,0,-0.016,-0,0,-0.016,-0,0,-0.016,-0,-0.336,0.7856
0,-0.024,-0,0,-0.024,-0,0,-0.024,-0,0,-0.024,-0,0,-0.024,-0,0,-0.024,-0,-0.3904,0.8896
0.096,0.144,2,0.04,0.064,1.6667,0,0.024,0,0,0.024,0,0,0.024,0,0,0.024,0,0.0992,0.1936
0.104,-0.12,-0.46429,0.056,-0.168,-0.25,0.016,-0.208,-0.071429,0,-0.224,-0,0,-0.224,-0,0,-0.224,-0,-0.2512,0.6064
0.088,0.136,1.8333,0.032,0.056,1.3333,0,0.024,0,0,0.024,0,0,0.024,0,0,0.024,0,0.0944,0.2176
0.112,-0.032,-0.77778,0.048,-0.096,-0.33333,0.008,-0.136,-0.055556,0,-0.144,-0,0,-0.144,-0,0,-0.144,-0,-0.2768,0.68
0.152,0.2,3.1667,0.056,0.08,2.3333,0,0.024,0,0,0.024,0,0,0.024,0,0,0.024,0,0.104,0.4672
0.04,0.064,1.6667,0,0.024,0,0,0.024,0,0,0.024,0,0,0.024,0,0,0.024,0,0.0976,0.3392
0.288,0.416,2.25,0.288,0.416,2.25,0.288,0.416,2.25,0.288,0.416,2.25,0.288,0.416,2.25,0.16,0.208,3.3333,0.0832,0.3536
0,0,NaN,0,0,NaN,0,0,NaN,0,0,NaN,0,0,NaN,0,0,NaN,0.0688,0.1552
0,-0.072,-0,0,-0.072,-0,0,-0.072,-0,0,-0.072,-0,0,-0.072,-0,0,-0.072,-0,-0.1856,0.456
0.272,0.344,3.7778,0.128,0.184,2.2857,0.096,0.136,2.4,0,0.04,0,0,0.04,0,0,0.04,0,0.1232,0.4768
0.176,0.32,1.2222,0.176,0.32,1.2222,0.176,0.264,2,0.056,0.088,1.75,0,0.032,0,0,0.032,0,0.1024,0.2656
0,0.008,0,0,0.008,0,0,0.008,0,0,0.008,0,0,0.008,0,0,0.008,0,0.08,0.2448
0.08,0.136,1.4286,0.032,0.048,2,0,0.016,0,0,0.016,0,0,0.016,0,0,0.016,0,0.1216,0.3904
0.336,-0.208,-0.61765,0.12,-0.424,-0.22059,0.088,-0.456,-0.16176,0.032,-0.512,-0.058824,0,-0.544,-0,0,-0.544,-0,-0.1952,0.4816
-0.16,-0.056,-1.5385,0,0.104,0,0,0.104,0,0,0.104,0,0,0.104,0,0,0.104,0,0.0896,0.1888
0.12,0.064,-2.1429,0.08,0.024,-1.4286,0.056,0,-1,0,-0.056,-0,0,-0.056,-0,0,-0.056,-0,-0.224,0.552
0.096,0.144,2,0.048,0.08,1.5,0.016,0.024,2,0,0.008,0,0,0.008,0,0,0.008,0,0.0976,0.3008
0.096,0.152,1.7143,0.04,0.064,1.6667,0,0.024,0,0,0.024,0,0,0.024,0,0,0.024,0,0.1072,0.2496
0.2,0.28,2.5,0.128,0.192,2,0.104,0.152,2.1667,0,0.048,0,0,0.048,0,0,0.048,0,0.1024,0.2896
0,0.048,0,0,0.048,0,0,0.048,0,0,0.048,0,0,0.048,0,0,0.048,0,0.1152,0.384
0,-0.232,-0,0,-0.232,-0,0,-0.232,-0,0,-0.232,-0,0,-0.232,-0,0,-0.232,-0,-0.3488,0.9168
0.128,0.176,2.6667,0.04,0.064,1.6667,0,0.024,0,0,0.024,0,0,0.024,0,0,0.024,0,0.0848,0.3008
0.312,0.4,3.5455,0.16,0.224,2.5,0.128,0.184,2.2857,0,0.056,0,0,0.056,0,0,0.056,0,0.136,0.456
0.144,0.208,2.25,0.08,0.12,2,0.04,0.064,1.6667,0,0.024,0,0,0.024,0,0,0.024,0,0.0928,0.288
-0.12,-0.04,-1.5,0.112,0.16,2.3333,0.072,0.112,1.8,0,0.04,0,0,0.04,0,0,0.04,0,0.0864,0.2432
0.176,0.04,-1.2941,0.48,0.344,-3.5294,0.344,0.208,-2.5294,0.136,0,-1,0,-0.136,-0,0,-0.136,-0,-0.3968,0.9488
0.072,0.112,1.8,0,0.04,0,0,0.04,0,0,0.04,0,0,0.04,0,0,0.04,0,0.1424,0.4976
0.152,0.168,9.5,0.088,0.104,5.5,0,0.016,0,0,0.016,0,0,0.016,0,0,0.016,0,0.1136,0.44
-0.576,-0.2,-1.5319,0.296,0.416,2.4667,0.168,0.264,1.75,0.08,0.128,1.6667,0,0.048,0,0,0.048,0,0.2928,0.52
0,0.376,0,0.296,0.416,2.4667,0.168,0.264,1.75,0.08,0.128,1.6667,0,0.048,0,0,0.048,0,0.2928,0.52
0.112,0.184,1.5556,0.056,0.088,1.75,0,0.032,0,0,0.032,0,0,0.032,0,0,0.032,0,0.4656,0.5392
0.08,0.128,1.6667,0.008,0.008,Inf,0,0,NaN,0,0,NaN,0,0,NaN,0,0,NaN,0.1792,0.2544
0.312,0.04,-1.1471,0.12,-0.152,-0.44118,0.096,-0.176,-0.35294,0.04,-0.232,-0.14706,0,-0.272,-0,0,-0.272,-0,-0.3056,0.8016
0.096,-0.008,-0.92308,0.024,-0.08,-0.23077,0,-0.104,-0,0,-0.104,-0,0,-0.104,-0,0,-0.104,-0,-0.5184,1.3168
0.04,0.064,1.6667,0,0.024,0,0,0.024,0,0,0.024,0,0,0.024,0,0,0.024,0,0.2272,0.4064
0,0.208,0,0,0.208,0,0,0.208,0,0,0.208,0,0,0.208,0,0,0.208,0,0.1168,0.1888
0.064,0.112,1.3333,0,0.048,0,0,0.048,0,0,0.048,0,0,0.048,0,0,0.048,0,0.2304,0.5376
0.112,0.192,1.4,0.064,0.12,1.1429,0.024,0.048,1,0,0.024,0,0,0.024,0,0,0.024,0,0.1584,0.4656
0,-0.24,-0,0,-0.24,-0,0,-0.24,-0,0,-0.24,-0,0,-0.24,-0,0,-0.24,-0,-0.4304,1.0688
0,-0.056,-0,0,-0.056,-0,0,-0.056,-0,0,-0.056,-0,0,-0.056,-0,0,-0.056,-0,0.1728,0.3792
0.128,0.216,1.4545,0.072,0.12,1.5,0.016,0.016,Inf,0,0,NaN,0,0,NaN,0,0,NaN,0.2176,0.5808
0.224,0.112,-2,0.112,0,-1,0.08,-0.032,-0.71429,0,-0.112,-0,0,-0.112,-0,0,-0.112,-0,-0.3392,0.8992
0.048,0.104,0.85714,0,0.056,0,0,0.056,0,0,0.056,0,0,0.056,0,0,0.056,0,0.2448,0.3744
0,-0.128,-0,0,-0.128,-0,0,-0.128,-0,0,-0.128,-0,0,-0.128,-0,0,-0.128,-0,-0.2544,0.7616
-0.04,-0.128,0.45455,0.352,0.264,-4,0.344,0.256,-3.9091,0,-0.088,-0,0,-0.088,-0,0,-0.088,-0,-0.4528,1.1376
-0.216,-0.088,-1.6875,0.32,0.448,2.5,0.232,0.36,1.8125,0.144,0.272,1.125,0.088,0.216,0.6875,0,0.128,0,-0.3024,0.9072
-0.184,0.08,-0.69697,-0.184,0.08,-0.69697,-0.184,0.08,-0.69697,-0.184,0.08,-0.69697,0,0.264,0,0,0.264,0,0.2144,0.36
0.376,0.12,-1.4688,0,-0.256,-0,0,-0.256,-0,0,-0.256,-0,0,-0.256,-0,0,-0.256,-0,-0.3072,0.9616
0.104,0.16,1.8571,0.032,0.056,1.3333,0,0.024,0,0,0.024,0,0,0.024,0,0,0.024,0,0.1232,0.2672
0.104,0.16,1.8571,0.032,0.056,1.3333,0,0.024,0,0,0.024,0,0,0.024,0,0,0.024,0,0.1232,0.2672
0,-0.184,-0,0,-0.184,-0,0,-0.184,-0,0,-0.184,-0,0,-0.184,-0,0,-0.184,-0,-0.2752,0.7344
0,-0.12,-0,0,-0.12,-0,0,-0.12,-0,0,-0.12,-0,0,-0.12,-0,0,-0.12,-0,0.1072,0.4896
0.144,0.208,2.25,0.08,0.112,2.5,0,0.032,0,0,0.032,0,0,0.032,0,0,0.032,0,0.1424,0.4176
0,0.264,0,0,0.264,0,0,0.264,0,0,0.264,0,0,0.264,0,0,0.264,0,0.1216,0.3328
0.176,0.16,-11,0.128,0.112,-8,0.088,0.072,-5.5,0,-0.016,-0,0,-0.016,-0,0,-0.016,-0,-0.3344,0.8576
0.08,0.048,-2.5,0,-0.032,-0,0,-0.032,-0,0,-0.032,-0,0,-0.032,-0,0,-0.032,-0,-0.2688,0.5488
0,0.008,0,0,0.008,0,0,0.008,0,0,0.008,0,0,0.008,0,0,0.008,0,0.1088,0.1728
0.056,-0.016,-0.77778,0,-0.072,-0,0,-0.072,-0,0,-0.072,-0,0,-0.072,-0,0,-0.072,-0,-0.2608,0.5712
0.056,0.096,1.4,0,0.04,0,0,0.04,0,0,0.04,0,0,0.04,0,0,0.04,0,0.1328,0.1648
0.096,0.032,-1.5,0.056,-0.008,-0.875,0.032,-0.032,-0.5,0,-0.064,-0,0,-0.064,-0,0,-0.064,-0,-0.1888,0.4896
0.128,-0.008,-0.94118,0.088,-0.048,-0.64706,0.064,-0.072,-0.47059,0,-0.136,-0,0,-0.136,-0,0,-0.136,-0,-0.1872,0.4816
0.056,0.096,1.4,0,0.04,0,0,0.04,0,0,0.04,0,0,0.04,0,0,0.04,0,0.1104,0.184
-0.032,0.104,-0.23529,-0.032,0.072,-0.30769,-0.032,0.048,-0.4,0.072,0.12,1.5,0,0.048,0,0,0.048,0,0.1152,0.328
0,0.016,0,0,0.016,0,0,0.016,0,0,0.016,0,0,0.016,0,0,0.016,0,0.0992,0.2416
0.2,0.336,1.4706,0.08,0.184,0.76923,0.048,0.104,0.85714,0,0.056,0,0,0.056,0,0,0.056,0,0.2192,0.4592
0,-0.312,-0,0,-0.312,-0,0,-0.312,-0,0,-0.312,-0,0,-0.312,-0,0,-0.312,-0,-0.432,1.0848
-0.304,-0.096,-1.4615,-0.304,-0.16,-2.1111,0.152,0.264,1.3571,0.032,0.056,1.3333,0,0.024,0,0,0.024,0,0.1568,0.3312
0.448,0.024,-1.0566,0.4,-0.024,-0.9434,0.248,-0.176,-0.58491,0.08,-0.344,-0.18868,0,-0.424,-0,0,-0.424,-0,-0.5264,1.2016
0.088,0.128,2.2,0,0.04,0,0,0.04,0,0,0.04,0,0,0.04,0,0,0.04,0,0.1376,0.2048
0.136,0.2,2.125,0.056,0.096,1.4,0.032,0.056,1.3333,0,0.024,0,0,0.024,0,0,0.024,0,0.12,0.3776
0.32,0.096,-1.4286,0.184,-0.04,-0.82143,0.128,-0.096,-0.57143,0,-0.224,-0,0,-0.224,-0,0,-0.224,-0,-0.4208,0.9728
0.32,0.424,3.0769,0.184,0.256,2.5556,0.128,0.184,2.2857,0.016,0.016,Inf,0,0,NaN,0,0,NaN,0.1584,0.4208
0.192,0.16,-6,0.088,0.056,-2.75,0.056,0.024,-1.75,0,-0.032,-0,0,-0.032,-0,0,-0.032,-0,-0.392,0.9152
0.272,0.208,-4.25,0.104,0.04,-1.625,0.08,0.016,-1.25,0,-0.064,-0,0,-0.064,-0,0,-0.064,-0,-0.4288,0.9936
0.08,0.128,1.6667,0.048,0.08,1.5,0.008,0.016,1,0,0.008,0,0,0.008,0,0,0.008,0,0.1312,0.392
0.192,0.08,-1.7143,0.088,-0.024,-0.78571,0.064,-0.048,-0.57143,0,-0.112,-0,0,-0.112,-0,0,-0.112,-0,-0.3216,0.752
0.072,-0.08,-0.47368,0.04,-0.112,-0.26316,0,-0.152,-0,0,-0.152,-0,0,-0.152,-0,0,-0.152,-0,-0.408,0.944
0.44,0.392,-9.1667,0.2,0.152,-4.1667,0.112,0.064,-2.3333,0.032,-0.016,-0.66667,0,-0.048,-0,0,-0.048,-0,-0.1648,0.44
0.344,0.256,-3.9091,0.144,0.056,-1.6364,0.088,0,-1,0,-0.088,-0,0,-0.088,-0,0,-0.088,-0,-0.3952,0.9472
0.072,-0.088,-0.45,0.24,0.08,-1.5,0.152,-0.008,-0.95,0.048,-0.112,-0.3,0,-0.16,-0,0,-0.16,-0,-0.4096,0.9696
0.336,0.256,-4.2,0.128,0.048,-1.6,0.088,0.008,-1.1,0,-0.08,-0,0,-0.08,-0,0,-0.08,-0,-0.3968,0.9456
-0.032,-0.08,0.66667,0.192,0.144,-4,0.12,0.072,-2.5,0.048,0,-1,0,-0.048,-0,0,-0.048,-0,-0.384,0.9152
-0.264,-0.112,-1.7368,0.2,0.296,2.0833,0.136,0.216,1.7,0.032,0.056,1.3333,0,0.024,0,0,0.024,0,0.1456,0.3904
0.096,0.16,1.5,0.032,0.056,1.3333,0,0.024,0,0,0.024,0,0,0.024,0,0,0.024,0,0.152,0.4128
0.184,0.224,4.6,0.064,0.08,4,0,0.016,0,0,0.016,0,0,0.016,0,0,0.016,0,0.16,0.4464
0,-0.224,-0,0,-0.224,-0,0,-0.224,-0,0,-0.224,-0,0,-0.224,-0,0,-0.224,-0,0.064,0.104
0,-0.224,-0,0,-0.224,-0,0,-0.224,-0,0,-0.224,-0,0,-0.224,-0,0,-0.224,-0,0.064,0.104
0.344,0.472,2.6875,0.152,0.224,2.1111,0.12,0.184,1.875,0.056,0.088,1.75,0,0.032,0,0,0.032,0,0.1312,0.2496
0,-0.2,-0,0,-0.2,-0,0,-0.2,-0,0,-0.2,-0,0,-0.2,-0,0,-0.2,-0,-0.1648,0.4576
0.128,-0.056,-0.69565,0.088,-0.096,-0.47826,0.064,-0.12,-0.34783,0,-0.184,-0,0,-0.184,-0,0,-0.184,-0,-0.1632,0.448
0,-0.192,-0,0,-0.192,-0,0,-0.192,-0,0,-0.192,-0,0,-0.192,-0,0,-0.192,-0,-0.1808,0.504
0,0.056,0,0,0.056,0,0,0.056,0,0,0.056,0,0,0.056,0,0,0.056,0,0.096,0.0976
0.152,0.216,2.375,0.112,0.176,1.75,0.088,0.152,1.375,0,0.064,0,0,0.064,0,0,0.064,0,0.0896,0.2096
0,-0.032,-0,0,-0.032,-0,0,-0.032,-0,0,-0.032,-0,0,-0.032,-0,0,-0.032,-0,-0.1488,0.4144
0,0.144,0,0,0.144,0,0,0.144,0,0,0.144,0,0,0.144,0,0,0.144,0,0.0992,0.1696
0.096,0.168,1.3333,0.016,0.016,Inf,0,0,NaN,0,0,NaN,0,0,NaN,0,0,NaN,0.0864,0.1744
0,0.44,0,0,0.44,0,0,0.44,0,0,0.44,0,0,0.44,0,0,0.44,0,0.136,0.208
0.088,-0.024,-0.78571,0,-0.112,-0,0,-0.112,-0,0,-0.112,-0,0,-0.112,-0,0,-0.112,-0,-0.2432,0.6208
0.12,-0.072,-0.625,0.072,-0.12,-0.375,0.04,-0.152,-0.20833,0,-0.192,-0,0,-0.192,-0,0,-0.192,-0,-0.32,0.8032
0.152,0.248,1.5833,0.096,0.168,1.3333,0.024,0.048,1,0,0.024,0,0,0.024,0,0,0.024,0,0.1424,0.5248
0.096,0.16,1.5,0,0.064,0,0,0.064,0,0,0.064,0,0,0.064,0,0,0.064,0,0.1456,0.3824
0.224,0.312,2.5455,0.08,0.128,1.6667,0.032,0.04,4,0,0.008,0,0,0.008,0,0,0.008,0,0.16,0.3808
0.224,0.312,2.5455,0.08,0.128,1.6667,0.032,0.04,4,0,0.008,0,0,0.008,0,0,0.008,0,0.16,0.3808
0.272,0.376,2.6154,0.104,0.184,1.3,0.072,0.128,1.2857,0,0.056,0,0,0.056,0,0,0.056,0,0.1872,0.5536
0.112,0.184,1.5556,0.064,0.104,1.6,0.016,0.016,Inf,0,0,NaN,0,0,NaN,0,0,NaN,0.1952,0.48
0.072,-0.136,-0.34615,0,-0.208,-0,0,-0.208,-0,0,-0.208,-0,0,-0.208,-0,0,-0.208,-0,-0.5504,1.2992
0.096,0.16,1.5,0.048,0.08,1.5,0,0.032,0,0,0.032,0,0,0.032,0,0,0.032,0,0.1984,0.552
0.104,-0.296,-0.26,0.064,-0.336,-0.16,0.032,-0.368,-0.08,0,-0.4,-0,0,-0.4,-0,0,-0.4,-0,-0.5472,1.296
0.104,0.168,1.625,0.048,0.08,1.5,0,0.032,0,0,0.032,0,0,0.032,0,0,0.032,0,0.2048,0.5488
0.112,0.168,2,0.064,0.096,2,0,0.032,0,0,0.032,0,0,0.032,0,0,0.032,0,0.1296,0.4464
0.112,0.168,2,0.064,0.096,2,0,0.032,0,0,0.032,0,0,0.032,0,0,0.032,0,0.1296,0.4464
0.096,0.168,1.3333,0.064,0.112,1.3333,0.04,0.064,1.6667,0,0.024,0,0,0.024,0,0,0.024,0,0.144,0.3616
0.104,-0.16,-0.39394,0.048,-0.216,-0.18182,0,-0.264,-0,0,-0.264,-0,0,-0.264,-0,0,-0.264,-0,-0.3184,0.7392
0.112,0.16,2.3333,0.064,0.096,2,0.032,0.048,2,0,0.016,0,0,0.016,0,0,0.016,0,0.1136,0.4128
0.096,0.152,1.7143,0.056,0.088,1.75,0.024,0.04,1.5,0,0.016,0,0,0.016,0,0,0.016,0,0.12,0.1744
0.072,-0.072,-0.5,0.04,-0.104,-0.27778,0,-0.144,-0,0,-0.144,-0,0,-0.144,-0,0,-0.144,-0,-0.1568,0.432
0.08,0.144,1.25,0.048,0.088,1.2,0.024,0.04,1.5,0,0.016,0,0,0.016,0,0,0.016,0,0.136,0.1472
0.056,0.104,1.1667,0,0.048,0,0,0.048,0,0,0.048,0,0,0.048,0,0,0.048,0,0.1312,0.1648
0.072,0.088,4.5,0.024,0.04,1.5,0,0.016,0,0,0.016,0,0,0.016,0,0,0.016,0,-0.1696,0.5296
0,0.2,0,0,0.2,0,0,0.2,0,0,0.2,0,0,0.2,0,0,0.2,0,0.136,0.1712
0.088,0,-1,0.048,-0.04,-0.54545,0,-0.088,-0,0,-0.088,-0,0,-0.088,-0,0,-0.088,-0,-0.1808,0.5504
0.048,-0.048,-0.5,0,-0.096,-0,0,-0.096,-0,0,-0.096,-0,0,-0.096,-0,0,-0.096,-0,-0.1696,0.4672
-0.448,-0.056,-1.1429,0.176,0.504,0.53659,0.136,0.288,0.89474,0.072,0.12,1.5,0,0.048,0,0,0.048,0,0.3152,0.1936
0,-0.144,-0,0,-0.144,-0,0,-0.144,-0,0,-0.144,-0,0,-0.144,-0,0,-0.144,-0,0.1104,0.1968
0,-0.344,-0,0,-0.344,-0,0,-0.344,-0,0,-0.344,-0,0,-0.344,-0,0,-0.344,-0,-0.1472,0.4368
-0.168,-0.344,0.95455,0.136,-0.04,-0.77273,0.112,-0.064,-0.63636,0.048,-0.128,-0.27273,0,-0.176,-0,0,-0.176,-0,-0.1888,0.4944
0.168,-0.176,-0.48837,0,-0.344,-0,0,-0.344,-0,0,-0.344,-0,0,-0.344,-0,0,-0.344,-0,-0.1232,0.376
-0.184,-0.136,-3.8333,0.16,0.208,3.3333,0.096,0.144,2,0,0.048,0,0,0.048,0,0,0.048,0,0.0928,0.2192
0,-0.176,-0,0,-0.176,-0,0,-0.176,-0,0,-0.176,-0,0,-0.176,-0,0,-0.176,-0,-0.1328,0.3792
0.136,-0.016,-0.89474,0.096,-0.056,-0.63158,0.072,-0.08,-0.47368,0,-0.152,-0,0,-0.152,-0,0,-0.152,-0,-0.1856,0.48
0.024,-0.152,-0.13636,0,-0.176,-0,0,-0.176,-0,0,-0.176,-0,0,-0.176,-0,0,-0.176,-0,-0.1808,0.488
0.072,-0.128,-0.36,0.032,-0.168,-0.16,0,-0.2,-0,0,-0.2,-0,0,-0.2,-0,0,-0.2,-0,-0.1792,0.48
0.032,-0.152,-0.17391,0,-0.184,-0,0,-0.184,-0,0,-0.184,-0,0,-0.184,-0,0,-0.184,-0,-0.1872,0.4912
0,0.096,0,0,0.096,0,0,0.096,0,0,0.096,0,0,0.096,0,0,0.096,0,0.1296,0.1936
0.248,0.096,-1.6316,0.248,0.096,-1.6316,0,-0.152,-0,0,-0.152,-0,0,-0.152,-0,0,-0.152,-0,-0.1552,0.4208
-0.056,-0.152,0.58333,-0.056,-0.152,0.58333,0.144,0.048,-1.5,0.072,-0.024,-0.75,0,-0.096,-0,0,-0.096,-0,-0.1408,0.3984
0,-0.104,-0,0,-0.104,-0,0,-0.104,-0,0,-0.104,-0,0,-0.104,-0,0,-0.104,-0,0.1216,0.1632
0.12,0.2,1.5,0.064,0.112,1.3333,0.04,0.064,1.6667,0,0.024,0,0,0.024,0,0,0.024,0,0.1776,0.1616
0.072,0.12,1.5,0,0.048,0,0,0.048,0,0,0.048,0,0,0.048,0,0,0.048,0,0.1376,0.184
0.088,0.152,1.375,0.04,0.072,1.25,0,0.032,0,0,0.032,0,0,0.032,0,0,0.032,0,0.144,0.1824
0.096,0.008,-1.0909,0.056,-0.032,-0.63636,0.016,-0.072,-0.18182,0,-0.088,-0,0,-0.088,-0,0,-0.088,-0,-0.1856,0.5024
0,-0.04,-0,0,-0.04,-0,0,-0.04,-0,0,-0.04,-0,0,-0.04,-0,0,-0.04,-0,0.128,0.1872
-0.088,0.136,-0.39286,0.144,0.232,1.6364,0.112,0.184,1.5556,0.04,0.072,1.25,0,0.032,0,0,0.032,0,0.1504,0.208
0.136,0.008,-1.0625,0.088,-0.04,-0.6875,0.056,-0.072,-0.4375,0,-0.128,-0,0,-0.128,-0,0,-0.128,-0,-0.1984,0.5104
0.152,0.232,1.9,0.096,0.152,1.7143,0.064,0.104,1.6,0,0.04,0,0,0.04,0,0,0.04,0,0.1312,0.2128
0.12,0.192,1.6667,0.064,0.112,1.3333,0.024,0.04,1.5,0,0.016,0,0,0.016,0,0,0.016,0,0.1264,0.2064
0.168,0.248,2.1,0.096,0.152,1.7143,0.072,0.112,1.8,0,0.04,0,0,0.04,0,0,0.04,0,0.0992,0.2272
0,-0.088,-0,0,-0.088,-0,0,-0.088,-0,0,-0.088,-0,0,-0.088,-0,0,-0.088,-0,-0.1648,0.4992
0.104,0.048,-1.8571,0.064,0.008,-1.1429,0.032,-0.024,-0.57143,0,-0.056,-0,0,-0.056,-0,0,-0.056,-0,-0.2144,0.6576
0.08,0.144,1.25,0.04,0.072,1.25,0,0.032,0,0,0.032,0,0,0.032,0,0,0.032,0,0.216,0.2
0.072,-0.448,-0.13846,0.024,-0.496,-0.046154,0,-0.52,-0,0,-0.52,-0,0,-0.52,-0,0,-0.52,-0,-0.1632,0.5168
0,-0.008,-0,0,-0.008,-0,0,-0.008,-0,0,-0.008,-0,0,-0.008,-0,0,-0.008,-0,0.1984,0.1536
0.208,0.328,1.7333,0.152,0.272,1.2667,0.12,0.24,1,0.072,0.128,1.2857,0,0.056,0,0,0.056,0,0.1504,0.1552
0,0.176,0,0,0.176,0,0,0.176,0,0,0.176,0,0,0.176,0,0,0.176,0,0.152,0.1872
0.136,0.224,1.5455,0.096,0.184,1.0909,0.072,0.16,0.81818,0,0.088,0,0,0.088,0,0,0.088,0,-0.2176,0.6928
0.088,0.152,1.375,0.048,0.08,1.5,0.016,0.024,2,0,0.008,0,0,0.008,0,0,0.008,0,0.2528,0.216
0.056,-0.032,-0.63636,0,-0.088,-0,0,-0.088,-0,0,-0.088,-0,0,-0.088,-0,0,-0.088,-0,-0.1648,0.5424
0,-0.048,-0,0,-0.048,-0,0,-0.048,-0,0,-0.048,-0,0,-0.048,-0,0,-0.048,-0,0.1392,0.1824
0,-0.28,-0,0,-0.28,-0,0,-0.28,-0,0,-0.28,-0,0,-0.28,-0,0,-0.28,-0,-0.1888,0.5344
0.072,0.12,1.5,0.032,0.056,1.3333,0,0.024,0,0,0.024,0,0,0.024,0,0,0.024,0,0.144,0.2
0,-0.312,-0,0,-0.312,-0,0,-0.312,-0,0,-0.312,-0,0,-0.312,-0,0,-0.312,-0,-0.1744,0.5056
0.032,0.064,1,0,0.032,0,0,0.032,0,0,0.032,0,0,0.032,0,0,0.032,0,0.1856,0.1632
0.184,0.304,1.5333,0.08,0.144,1.25,0,0.064,0,0,0.064,0,0,0.064,0,0,0.064,0,0.24,0.4624
0.184,0.304,1.5333,0.08,0.144,1.25,0,0.064,0,0,0.064,0,0,0.064,0,0,0.064,0,0.24,0.4624
0.2,-0.312,-0.39062,0.088,-0.424,-0.17188,0.024,-0.488,-0.046875,0,-0.512,-0,0,-0.512,-0,0,-0.512,-0,-0.592,1.4448
0.008,0.024,0.5,0,0.016,0,0,0.016,0,0,0.016,0,0,0.016,0,0,0.016,0,0.1312,0.2608
0.168,0.272,1.6154,0.056,0.112,1,0,0.056,0,0,0.056,0,0,0.056,0,0,0.056,0,0.2528,0.608
0.24,-0.384,-0.38462,0.112,-0.512,-0.17949,0,-0.624,-0,0,-0.624,-0,0,-0.624,-0,0,-0.624,-0,-0.5968,1.4784
0.152,0.224,2.1111,0,0.072,0,0,0.072,0,0,0.072,0,0,0.072,0,0,0.072,0,0.2688,0.6656
0.256,0.112,-1.7778,0.152,0.008,-1.0556,0.072,-0.072,-0.5,0,-0.144,-0,0,-0.144,-0,0,-0.144,-0,-0.6304,1.5456
0.256,0.16,-2.6667,0.136,0.04,-1.4167,0.056,-0.04,-0.58333,0,-0.096,-0,0,-0.096,-0,0,-0.096,-0,-0.5968,1.4496
0.136,-0.008,-0.94444,0.08,-0.064,-0.55556,0,-0.144,-0,0,-0.144,-0,0,-0.144,-0,0,-0.144,-0,-0.6016,1.4752
0.224,0.344,1.8667,0.104,0.168,1.625,0.04,0.056,2.5,0,0.016,0,0,0.016,0,0,0.016,0,0.28,0.6064
0.224,-0.032,-0.875,0.12,-0.136,-0.46875,0.056,-0.2,-0.21875,0,-0.256,-0,0,-0.256,-0,0,-0.256,-0,-0.5952,1.4512
0.96,0.64,-3,0.152,-0.168,-0.475,0.112,-0.208,-0.35,0,-0.32,-0,0,-0.32,-0,0,-0.32,-0,-0.2544,0.6368
0.96,0.64,-3,0.152,-0.168,-0.475,0.112,-0.208,-0.35,0,-0.32,-0,0,-0.32,-0,0,-0.32,-0,-0.2544,0.6368
0,-0.072,-0,0,-0.072,-0,0,-0.072,-0,0,-0.072,-0,0,-0.072,-0,0,-0.072,-0,0.136,0.28
0.112,0.208,1.1667,0.064,0.12,1.1429,0.032,0.064,1,0,0.032,0,0,0.032,0,0,0.032,0,0.1872,0.512
0.128,0.224,1.3333,0.072,0.136,1.125,0.04,0.08,1,0,0.04,0,0,0.04,0,0,0.04,0,0.1904,0.512
0,0.272,0,0,0.272,0,0,0.272,0,0,0.272,0,0,0.272,0,0,0.272,0,0.1568,0.376
0.104,0.192,1.1818,0.056,0.112,1,0.016,0.032,1,0,0.016,0,0,0.016,0,0,0.016,0,0.2304,0.4368
0.328,0.016,-1.0513,0.328,0.016,-1.0513,0.328,0.016,-1.0513,0.08,-0.232,-0.25641,0,-0.312,-0,0,-0.312,-0,-0.1664,0.416
0.424,0.536,3.7857,0.104,0.16,1.8571,0.048,0.064,3,0,0.016,0,0,0.016,0,0,0.016,0,0.1424,0.2928
0.096,-0.048,-0.66667,0.016,-0.128,-0.11111,0,-0.144,-0,0,-0.144,-0,0,-0.144,-0,0,-0.144,-0,-0.1792,0.4848
0,0.008,0,0,0.008,0,0,0.008,0,0,0.008,0,0,0.008,0,0,0.008,0,0.2416,0.5712
0,0.008,0,0,0.008,0,0,0.008,0,0,0.008,0,0,0.008,0,0,0.008,0,0.2416,0.5712
0.192,-0.088,-0.68571,0.072,-0.208,-0.25714,0,-0.28,-0,0,-0.28,-0,0,-0.28,-0,0,-0.28,-0,-0.5152,1.1072
0.008,-0.256,-0.030303,0,-0.264,-0,0,-0.264,-0,0,-0.264,-0,0,-0.264,-0,0,-0.264,-0,-0.2608,0.6992
0.168,0.272,1.6154,0.08,0.136,1.4286,0.032,0.048,2,0,0.016,0,0,0.016,0,0,0.016,0,0.1872,0.5952
0.168,-0.4,-0.29577,0.08,-0.488,-0.14085,0.048,-0.52,-0.084507,0,-0.568,-0,0,-0.568,-0,0,-0.568,-0,-0.288,0.688
0.176,0.256,2.2,0.08,0.12,2,0.008,0.008,Inf,0,0,NaN,0,0,NaN,0,0,NaN,0.1664,0.6
0.232,-0.192,-0.54717,0.112,-0.312,-0.26415,0.056,-0.368,-0.13208,0,-0.424,-0,0,-0.424,-0,0,-0.424,-0,-0.568,1.3152
0.192,0.288,2,0.096,0.16,1.5,0.072,0.12,1.5,0,0.048,0,0,0.048,0,0,0.048,0,0.1712,0.4208
0.264,0.056,-1.2692,0.176,-0.032,-0.84615,0.104,-0.104,-0.5,0,-0.208,-0,0,-0.208,-0,0,-0.208,-0,-0.392,0.9424
0.216,0,-1,0.12,-0.096,-0.55556,0.064,-0.152,-0.2963,0,-0.216,-0,0,-0.216,-0,0,-0.216,-0,-0.2976,0.7136
0.088,0.16,1.2222,0.048,0.088,1.2,0.016,0.032,1,0,0.016,0,0,0.016,0,0,0.016,0,0.1904,0.3888
-0.032,0.048,-0.4,0.056,0.088,1.75,0,0.032,0,0,0.032,0,0,0.032,0,0,0.032,0,0.176,0.2688
0,-0.128,-0,0,-0.128,-0,0,-0.128,-0,0,-0.128,-0,0,-0.128,-0,0,-0.128,-0,0.1296,0.2112
0.16,0.272,1.4286,0.248,0.36,2.2143,0,0.112,0,0,0.112,0,0,0.112,0,0,0.112,0,0.1136,0.2128
0.104,0.168,1.625,0.064,0.104,1.6,0.024,0.032,3,0,0.008,0,0,0.008,0,0,0.008,0,0.1536,0.2528
-0.136,0.064,-0.68,-0.136,0.064,-0.68,-0.136,0.064,-0.68,-0.136,0.064,-0.68,0.216,0.352,1.5882,0.096,0.16,1.5,0.1152,0.184
0,0,NaN,0,0,NaN,0,0,NaN,0,0,NaN,0,0,NaN,0,0,NaN,0.152,0.208
0.216,0.064,-1.4211,0.12,-0.032,-0.78947,0.072,-0.08,-0.47368,0,-0.152,-0,0,-0.152,-0,0,-0.152,-0,-0.4256,1.0112
0.136,0.008,-1.0625,0.088,-0.04,-0.6875,0.064,-0.064,-0.5,0,-0.128,-0,0,-0.128,-0,0,-0.128,-0,-0.2288,0.5968
0.104,0.192,1.1818,0.048,0.096,1,0,0.048,0,0,0.048,0,0,0.048,0,0,0.048,0,0.1872,0.4048
0.112,-0.12,-0.48276,0.064,-0.168,-0.27586,0.024,-0.208,-0.10345,0,-0.232,-0,0,-0.232,-0,0,-0.232,-0,-0.4048,0.9808
0,-0.296,-0,0,-0.296,-0,0,-0.296,-0,0,-0.296,-0,0,-0.296,-0,0,-0.296,-0,0.136,0.2416
0.136,-0.24,-0.3617,0.072,-0.304,-0.19149,0.032,-0.344,-0.085106,0,-0.376,-0,0,-0.376,-0,0,-0.376,-0,-0.4,0.8464
0.064,-0.192,-0.25,0,-0.256,-0,0,-0.256,-0,0,-0.256,-0,0,-0.256,-0,0,-0.256,-0,-0.3472,0.848
0.912,0.576,-2.7143,0.28,-0.056,-0.83333,0.208,-0.128,-0.61905,0.072,-0.264,-0.21429,0,-0.336,-0,0,-0.336,-0,-0.4288,0.976
0.432,0.6,2.5714,0.24,0.352,2.1429,0.176,0.264,2,0.056,0.088,1.75,0,0.032,0,0,0.032,0,0.2032,0.48
1.112,0.488,-1.7821,0.336,-0.288,-0.53846,0.24,-0.384,-0.38462,0.072,-0.552,-0.11538,0,-0.624,-0,0,-0.624,-0,-0.4176,0.9744
0.12,-0.376,-0.24194,0.048,-0.448,-0.096774,0,-0.496,-0,0,-0.496,-0,0,-0.496,-0,0,-0.496,-0,-0.4784,1.1728
0.12,0.176,2.1429,0,0.056,0,0,0.056,0,0,0.056,0,0,0.056,0,0,0.056,0,0.2288,0.5504
0.064,-0.328,-0.16327,0,-0.392,-0,0,-0.392,-0,0,-0.392,-0,0,-0.392,-0,0,-0.392,-0,-0.448,1.152
0.176,0.296,1.4667,0.08,0.152,1.1111,0,0.072,0,0,0.072,0,0,0.072,0,0,0.072,0,0.2496,0.4928
0.464,0.112,-1.3182,0.328,-0.024,-0.93182,0.192,-0.16,-0.54545,0.048,-0.304,-0.13636,0,-0.352,-0,0,-0.352,-0,-0.432,1.0448
0.224,0,-1,0.128,-0.096,-0.57143,0.088,-0.136,-0.39286,0,-0.224,-0,0,-0.224,-0,0,-0.224,-0,-0.4016,1.0048
0.056,0.08,2.3333,0,0.024,0,0,0.024,0,0,0.024,0,0,0.024,0,0,0.024,0,0.2208,0.4816
0.144,0.248,1.3846,0.08,0.144,1.25,0.048,0.088,1.2,0,0.04,0,0,0.04,0,0,0.04,0,0.1152,0.28
0,-0.552,-0,0,-0.552,-0,0,-0.552,-0,0,-0.552,-0,0,-0.552,-0,0,-0.552,-0,-0.2624,0.6672
0,-0.36,-0,0,-0.36,-0,0,-0.36,-0,0,-0.36,-0,0,-0.36,-0,0,-0.36,-0,0.1584,0.408
0,-0.36,-0,0,-0.36,-0,0,-0.36,-0,0,-0.36,-0,0,-0.36,-0,0,-0.36,-0,0.1648,0.3488
0.16,0.28,1.3333,0.08,0.152,1.1111,0.04,0.072,1.25,0,0.032,0,0,0.032,0,0,0.032,0,0.2096,0.4896
0.064,0.128,1,0,0.064,0,0,0.064,0,0,0.064,0,0,0.064,0,0,0.064,0,0.2144,0.4768
0.12,-0.168,-0.41667,0.048,-0.24,-0.16667,0,-0.288,-0,0,-0.288,-0,0,-0.288,-0,0,-0.288,-0,-0.5696,1.3808
0.12,0.192,1.6667,0.032,0.048,2,0,0.016,0,0,0.016,0,0,0.016,0,0,0.016,0,0.2608,0.5616
0.08,0.152,1.1111,0,0.072,0,0,0.072,0,0,0.072,0,0,0.072,0,0,0.072,0,0.2512,0.4352
0.104,0.168,1.625,0.048,0.072,2,0,0.024,0,0,0.024,0,0,0.024,0,0,0.024,0,0.2272,0.4928
0.064,0.112,1.3333,0,0.048,0,0,0.048,0,0,0.048,0,0,0.048,0,0,0.048,0,0.1744,0.3888
0.072,0.184,0.64286,0,0.112,0,0,0.112,0,0,0.112,0,0,0.112,0,0,0.112,0,0.216,0.328
0.16,0.248,1.8182,0.112,0.176,1.75,0.048,0.072,2,0,0.024,0,0,0.024,0,0,0.024,0,0.3456,0.5296
0.216,-0.304,-0.41538,0.112,-0.408,-0.21538,0.08,-0.44,-0.15385,0,-0.52,-0,0,-0.52,-0,0,-0.52,-0,-0.4384,1.2592
0.096,0.144,2,0,0.048,0,0,0.048,0,0,0.048,0,0,0.048,0,0,0.048,0,0.2208,0.4112
0.176,0.216,4.4,0.112,0.152,2.8,0.056,0.096,1.4,0,0.04,0,0,0.04,0,0,0.04,0,-0.4944,1.3392
0.128,-0.072,-0.64,0,-0.2,-0,0,-0.2,-0,0,-0.2,-0,0,-0.2,-0,0,-0.2,-0,-0.4752,1.304
0.184,0.296,1.6429,0.088,0.16,1.2222,0,0.072,0,0,0.072,0,0,0.072,0,0,0.072,0,0.3808,0.4016
0.08,0.12,2,0,0.04,0,0,0.04,0,0,0.04,0,0,0.04,0,0,0.04,0,0.1264,0.3776
0.216,0.24,9,0.152,0.176,6.3333,0.088,0.112,3.6667,0,0.024,0,0,0.024,0,0,0.024,0,0.1152,0.4144
0,0.056,0,0,0.056,0,0,0.056,0,0,0.056,0,0,0.056,0,0,0.056,0,0.1168,0.1408
0.2,0.336,1.4706,0.12,0.216,1.25,0.08,0.144,1.25,0,0.064,0,0,0.064,0,0,0.064,0,0.256,0.6192
0,-0.392,-0,0,-0.392,-0,0,-0.392,-0,0,-0.392,-0,0,-0.392,-0,0,-0.392,-0,0.112,0.2704
0,-0.448,-0,0,-0.448,-0,0,-0.448,-0,0,-0.448,-0,0,-0.448,-0,0,-0.448,-0,-0.1856,0.5232
0,-0.232,-0,0,-0.232,-0,0,-0.232,-0,0,-0.232,-0,0,-0.232,-0,0,-0.232,-0,0.1216,0.376
0.096,-0.424,-0.18462,0,-0.52,-0,0,-0.52,-0,0,-0.52,-0,0,-0.52,-0,0,-0.52,-0,-0.6048,1.4384
-0.312,-0.24,-4.3333,-0.312,-0.24,-4.3333,-0.312,-0.24,-4.3333,0,0.072,0,0,0.072,0,0,0.072,0,0.1728,0.2944
0.224,0.072,-1.4737,0.224,0.072,-1.4737,0.48,0.328,-3.1579,0.192,0.04,-1.2632,0.048,-0.104,-0.31579,0,-0.152,-0,-0.3744,0.7936
0.632,0.448,-3.4348,0.4,0.216,-2.1739,0.248,0.064,-1.3478,0.152,-0.032,-0.82609,0,-0.184,-0,0,-0.184,-0,-0.2688,0.56
0,-0.12,-0,0,-0.12,-0,0,-0.12,-0,0,-0.12,-0,0,-0.12,-0,0,-0.12,-0,0.1408,0.1504
0,-0.216,-0,0,-0.216,-0,0,-0.216,-0,0,-0.216,-0,0,-0.216,-0,0,-0.216,-0,-0.2064,0.5648
0.088,0.144,1.5714,0.048,0.08,1.5,0.008,0.008,Inf,0,0,NaN,0,0,NaN,0,0,NaN,0.1408,0.232
0,-0.088,-0,0,-0.088,-0,0,-0.088,-0,0,-0.088,-0,0,-0.088,-0,0,-0.088,-0,0.1392,0.1824
0.096,0.16,1.5,0.056,0.096,1.4,0.032,0.056,1.3333,0,0.024,0,0,0.024,0,0,0.024,0,0.1328,0.2032
0.12,0.2,1.5,0.072,0.128,1.2857,0.032,0.064,1,0,0.032,0,0,0.032,0,0,0.032,0,0.1024,0.16
0.096,0.168,1.3333,0.04,0.064,1.6667,0,0.024,0,0,0.024,0,0,0.024,0,0,0.024,0,0.192,0.5328
0.104,0.176,1.4444,0.048,0.08,1.5,0,0.032,0,0,0.032,0,0,0.032,0,0,0.032,0,0.1968,0.552
0.136,0.232,1.4167,0.064,0.112,1.3333,0,0.048,0,0,0.048,0,0,0.048,0,0,0.048,0,0.2096,0.5536
0.104,0.192,1.1818,0.056,0.112,1,0.024,0.04,1.5,0,0.016,0,0,0.016,0,0,0.016,0,0.184,0.5152
0.08,0.144,1.25,0.024,0.032,3,0,0.008,0,0,0.008,0,0,0.008,0,0,0.008,0,0.1872,0.456
0.128,0.216,1.4545,0.08,0.136,1.4286,0.048,0.08,1.5,0,0.032,0,0,0.032,0,0,0.032,0,0.1872,0.5104
0.104,0.176,1.4444,0,0.072,0,0,0.072,0,0,0.072,0,0,0.072,0,0,0.072,0,0.0848,0.2176
0.08,0.152,1.1111,0,0.072,0,0,0.072,0,0,0.072,0,0,0.072,0,0,0.072,0,0.1584,0.3968
0.04,0.064,1.6667,0,0.024,0,0,0.024,0,0,0.024,0,0,0.024,0,0,0.024,0,0.1136,0.2176
0.296,0.432,2.1765,0.176,0.28,1.6923,0.12,0.216,1.25,0.008,0.016,1,0,0.008,0,0,0.008,0,0.1648,0.4112
0.128,0.216,1.4545,0.072,0.128,1.2857,0.032,0.056,1.3333,0,0.024,0,0,0.024,0,0,0.024,0,0.1424,0.3824
0.328,0.512,1.7826,0.208,0.328,1.7333,0.152,0.256,1.4615,0.04,0.096,0.71429,0,0.056,0,0,0.056,0,0.1696,0.496
0.24,0.32,3,0.136,0.192,2.4286,0.096,0.136,2.4,0,0.04,0,0,0.04,0,0,0.04,0,0.1136,0.448
0.232,0.352,1.9333,0.128,0.224,1.3333,0.088,0.168,1.1,0,0.08,0,0,0.08,0,0,0.08,0,0.152,0.432
0.184,0.304,1.5333,0.08,0.168,0.90909,0.04,0.08,1,0,0.04,0,0,0.04,0,0,0.04,0,0.1872,0.488
0.048,0.072,2,0,0.024,0,0,0.024,0,0,0.024,0,0,0.024,0,0,0.024,0,0.1424,0.528
0.128,0.208,1.6,0.08,0.128,1.6667,0.04,0.064,1.6667,0,0.024,0,0,0.024,0,0,0.024,0,0.1584,0.5232
0.216,0.224,27,0.128,0.136,16,0.08,0.088,10,0,0.008,0,0,0.008,0,0,0.008,0,0.1008,0.36
0.128,0.272,0.88889,0.08,0.152,1.1111,0.048,0.096,1,0,0.048,0,0,0.048,0,0,0.048,0,0.1392,0.3936
0.048,0.072,2,0,0.024,0,0,0.024,0,0,0.024,0,0,0.024,0,0,0.024,0,0.1504,0.4032
0,-0.064,-0,0,-0.064,-0,0,-0.064,-0,0,-0.064,-0,0,-0.064,-0,0,-0.064,-0,0.1792,0.4608
0.416,0.536,3.4667,0.184,0.28,1.9167,0.112,0.192,1.4,0,0.08,0,0,0.08,0,0,0.08,0,0.1408,0.488
0.136,0.2,2.125,0.08,0.12,2,0.032,0.04,4,0,0.008,0,0,0.008,0,0,0.008,0,0.1536,0.496
0.12,0.112,-15,0.072,0.064,-9,0.016,0.008,-2,0,-0.008,-0,0,-0.008,-0,0,-0.008,-0,-0.4736,1.0944
0.12,0.184,1.875,0.056,0.096,1.4,0,0.04,0,0,0.04,0,0,0.04,0,0,0.04,0,0.1472,0.4352
0.048,0.088,1.2,0,0.04,0,0,0.04,0,0,0.04,0,0,0.04,0,0,0.04,0,0.112,0.3424
0.368,0.496,2.875,0.368,0.496,2.875,0.096,0.16,1.5,0,0.064,0,0,0.064,0,0,0.064,0,0.1424,0.4064
0,-0.16,-0,0,-0.16,-0,0,-0.16,-0,0,-0.16,-0,0,-0.16,-0,0,-0.16,-0,-0.1712,0.4944
0.04,0.072,1.25,0,0.032,0,0,0.032,0,0,0.032,0,0,0.032,0,0,0.032,0,0.104,0.3152
0,-0.344,-0,0,-0.344,-0,0,-0.344,-0,0,-0.344,-0,0,-0.344,-0,0,-0.344,-0,-0.1312,0.3616
0,-0.2,-0,0,-0.2,-0,0,-0.2,-0,0,-0.2,-0,0,-0.2,-0,0,-0.2,-0,0.0848,0.1296
0,-0.12,-0,0,-0.12,-0,0,-0.12,-0,0,-0.12,-0,0,-0.12,-0,0,-0.12,-0,0.0784,0.1312
0.088,0.144,1.5714,0.056,0.096,1.4,0.04,0.064,1.6667,0,0.024,0,0,0.024,0,0,0.024,0,0.0912,0.1408
0.112,0.176,1.75,0.064,0.104,1.6,0.04,0.064,1.6667,0,0.024,0,0,0.024,0,0,0.024,0,0.0784,0.2112
0.08,0.12,2,0.04,0.064,1.6667,0.016,0.016,Inf,0,0,NaN,0,0,NaN,0,0,NaN,0.08,0.16
0.096,0,-1,0.056,-0.04,-0.58333,0.04,-0.056,-0.41667,0,-0.096,-0,0,-0.096,-0,0,-0.096,-0,-0.1792,0.4304
-0.144,-0.112,-4.5,0.184,0.216,5.75,0.112,0.144,3.5,0,0.032,0,0,0.032,0,0,0.032,0,0.0976,0.3488
0.088,0,-1,0.04,-0.048,-0.45455,0,-0.088,-0,0,-0.088,-0,0,-0.088,-0,0,-0.088,-0,-0.4064,0.928
0.024,0.032,3,0,0.008,0,0,0.008,0,0,0.008,0,0,0.008,0,0,0.008,0,0.1136,0.3936
0.072,0.112,1.8,0.024,0.048,1,0,0.024,0,0,0.024,0,0,0.024,0,0,0.024,0,0.0736,0.2352
0.104,0.144,2.6,0.056,0.08,2.3333,0.016,0.016,Inf,0,0,NaN,0,0,NaN,0,0,NaN,0.1072,0.4064
0.12,0.176,2.1429,0.08,0.112,2.5,0.032,0.048,2,0,0.016,0,0,0.016,0,0,0.016,0,0.1248,0.456
0.128,0.176,2.6667,0.072,0.104,2.25,0.04,0.064,1.6667,0,0.024,0,0,0.024,0,0,0.024,0,0.1152,0.384
0.272,-0.08,-0.77273,0.112,-0.24,-0.31818,0.088,-0.264,-0.25,0.04,-0.312,-0.11364,0,-0.352,-0,0,-0.352,-0,-0.224,0.5648
0.08,0.112,2.5,0.024,0.032,3,0,0.008,0,0,0.008,0,0,0.008,0,0,0.008,0,0.1168,0.4176
0,-0.096,-0,0,-0.096,-0,0,-0.096,-0,0,-0.096,-0,0,-0.096,-0,0,-0.096,-0,0.0832,0.248
0.264,0.104,-1.65,0.104,-0.056,-0.65,0.072,-0.088,-0.45,0,-0.16,-0,0,-0.16,-0,0,-0.16,-0,-0.2608,0.6256
0,-0.2,-0,0,-0.2,-0,0,-0.2,-0,0,-0.2,-0,0,-0.2,-0,0,-0.2,-0,-0.3904,0.9008
0.112,-0.024,-0.82353,0.056,-0.08,-0.41176,0.024,-0.112,-0.17647,0,-0.136,-0,0,-0.136,-0,0,-0.136,-0,-0.4352,0.9776
0.096,-0.048,-0.66667,0.04,-0.104,-0.27778,0,-0.144,-0,0,-0.144,-0,0,-0.144,-0,0,-0.144,-0,-0.4608,1.0432
0.128,0.184,2.2857,0.072,0.104,2.25,0.024,0.04,1.5,0,0.016,0,0,0.016,0,0,0.016,0,0.12,0.4336
0.104,0.152,2.1667,0.04,0.064,1.6667,0,0.024,0,0,0.024,0,0,0.024,0,0,0.024,0,0.112,0.4256
0.056,0.08,2.3333,0,0.024,0,0,0.024,0,0,0.024,0,0,0.024,0,0,0.024,0,0.1248,0.3968
0,-0.312,-0,0,-0.312,-0,0,-0.312,-0,0,-0.312,-0,0,-0.312,-0,0,-0.312,-0,0.1024,0.3056
0.088,0.128,2.2,0.04,0.064,1.6667,0,0.024,0,0,0.024,0,0,0.024,0,0,0.024,0,0.1136,0.4368
0,-0.304,-0,0,-0.304,-0,0,-0.304,-0,0,-0.304,-0,0,-0.304,-0,0,-0.304,-0,0.128,0.4464
0.088,-0.336,-0.20755,0.04,-0.384,-0.09434,0,-0.424,-0,0,-0.424,-0,0,-0.424,-0,0,-0.424,-0,-0.4384,0.992
0.104,-0.32,-0.24528,0.056,-0.368,-0.13208,0.016,-0.408,-0.037736,0,-0.424,-0,0,-0.424,-0,0,-0.424,-0,-0.4384,0.9888
0.112,0.16,2.3333,0.064,0.088,2.6667,0.024,0.032,3,0,0.008,0,0,0.008,0,0,0.008,0,0.12,0.4192
0,-0.04,-0,0,-0.04,-0,0,-0.04,-0,0,-0.04,-0,0,-0.04,-0,0,-0.04,-0,0.0896,0.1744
0.192,-0.04,-0.82759,0.248,0.016,-1.069,0.12,-0.112,-0.51724,0.048,-0.184,-0.2069,0,-0.232,-0,0,-0.232,-0,-0.1856,0.4512
-0.064,-0.024,-1.6,0.12,0.16,3,0.08,0.12,2,0,0.04,0,0,0.04,0,0,0.04,0,0.072,0.16
0.136,0.168,4.25,0.064,0.096,2,0,0.032,0,0,0.032,0,0,0.032,0,0,0.032,0,0.0704,0.208
0.312,0.28,-9.75,0.16,0.128,-5,0.104,0.072,-3.25,0,-0.032,-0,0,-0.032,-0,0,-0.032,-0,-0.2672,0.5792
0.112,0.16,2.3333,0.04,0.056,2.5,0,0.016,0,0,0.016,0,0,0.016,0,0,0.016,0,0.0912,0.1904
0.12,-0.072,-0.625,0.064,-0.128,-0.33333,0.04,-0.152,-0.20833,0,-0.192,-0,0,-0.192,-0,0,-0.192,-0,-0.1872,0.4448
0.088,0.128,2.2,0.008,0.016,1,0,0.008,0,0,0.008,0,0,0.008,0,0,0.008,0,0.1104,0.44
0.12,0.168,2.5,0.064,0.088,2.6667,0,0.024,0,0,0.024,0,0,0.024,0,0,0.024,0,0.1072,0.296
0,-0.432,-0,0,-0.432,-0,0,-0.432,-0,0,-0.432,-0,0,-0.432,-0,0,-0.432,-0,0.0672,0.208
0.056,0.088,1.75,0,0.032,0,0,0.032,0,0,0.032,0,0,0.032,0,0,0.032,0,0.0816,0.1872
0.08,0.128,1.6667,0.024,0.04,1.5,0,0.016,0,0,0.016,0,0,0.016,0,0,0.016,0,0.1088,0.2688
0.12,0.168,2.5,0.056,0.088,1.75,0.016,0.032,1,0,0.016,0,0,0.016,0,0,0.016,0,0.12,0.4944
0.136,0.192,2.4286,0.104,0.144,2.6,0.072,0.096,3,0,0.024,0,0,0.024,0,0,0.024,0,0.0768,0.4112
0.08,0.112,2.5,0,0.032,0,0,0.032,0,0,0.032,0,0,0.032,0,0,0.032,0,0.12,0.5008
0.12,-0.256,-0.31915,0.048,-0.328,-0.12766,0,-0.376,-0,0,-0.376,-0,0,-0.376,-0,0,-0.376,-0,-0.376,0.864
0.096,0.136,2.4,0.016,0.016,Inf,0,0,NaN,0,0,NaN,0,0,NaN,0,0,NaN,0.1008,0.4048
0.256,-0.24,-0.51613,0.096,-0.4,-0.19355,0.08,-0.416,-0.16129,0.024,-0.472,-0.048387,0,-0.496,-0,0,-0.496,-0,-0.184,0.44
0.056,0.088,1.75,0,0.032,0,0,0.032,0,0,0.032,0,0,0.032,0,0,0.032,0,0.0816,0.1744
0.272,-0.048,-0.85,0.12,-0.2,-0.375,0.096,-0.224,-0.3,0.032,-0.288,-0.1,0,-0.32,-0,0,-0.32,-0,-0.2,0.4816
0,-0.24,-0,0,-0.24,-0,0,-0.24,-0,0,-0.24,-0,0,-0.24,-0,0,-0.24,-0,0.0992,0.368
0.128,0.184,2.2857,0.08,0.112,2.5,0.048,0.072,2,0,0.024,0,0,0.024,0,0,0.024,0,0.12,0.448
0.08,0.104,3.3333,0.016,0.016,Inf,0,0,NaN,0,0,NaN,0,0,NaN,0,0,NaN,0.1088,0.4768
0.12,-0.272,-0.30612,0.088,-0.304,-0.22449,0.04,-0.352,-0.10204,0,-0.392,-0,0,-0.392,-0,0,-0.392,-0,-0.3872,0.9008
0.088,0.12,2.75,0.024,0.032,3,0,0.008,0,0,0.008,0,0,0.008,0,0,0.008,0,0.0912,0.3808
0.072,-0.032,-0.69231,0,-0.104,-0,0,-0.104,-0,0,-0.104,-0,0,-0.104,-0,0,-0.104,-0,-0.3456,0.816
0,0.136,0,0,0.136,0,0,0.136,0,0,0.136,0,0,0.136,0,0,0.136,0,0.208,0.4464
0,0.136,0,0,0.136,0,0,0.136,0,0,0.136,0,0,0.136,0,0,0.136,0,0.208,0.4464
0.128,0.2,1.7778,0,0.072,0,0,0.072,0,0,0.072,0,0,0.072,0,0,0.072,0,0.2128,0.4048
0.112,0.072,-2.8,0.048,0.008,-1.2,0,-0.04,-0,0,-0.04,-0,0,-0.04,-0,0,-0.04,-0,-0.3344,0.9696
0,0.376,0,0,0.376,0,0,0.376,0,0,0.376,0,0,0.376,0,0,0.376,0,0.232,0.3024
0,-0.16,-0,0,-0.16,-0,0,-0.16,-0,0,-0.16,-0,0,-0.16,-0,0,-0.16,-0,-0.416,1.2256
0,-0.048,-0,0,-0.048,-0,0,-0.048,-0,0,-0.048,-0,0,-0.048,-0,0,-0.048,-0,-0.224,0.56
0.32,0.568,1.2903,0.24,0.424,1.3043,0.224,0.376,1.4737,0.072,0.144,1,0,0.072,0,0,0.072,0,0.2576,0.432
0.168,-0.064,-0.72414,0,-0.232,-0,0,-0.232,-0,0,-0.232,-0,0,-0.232,-0,0,-0.232,-0,-0.5264,1.3232
0,-0.072,-0,0,-0.072,-0,0,-0.072,-0,0,-0.072,-0,0,-0.072,-0,0,-0.072,-0,0.2064,0.4112
0.36,0.072,-1.25,0.24,-0.048,-0.83333,0.176,-0.112,-0.61111,0,-0.288,-0,0,-0.288,-0,0,-0.288,-0,-0.5104,1.128
0,0.168,0,0,0.168,0,0,0.168,0,0,0.168,0,0,0.168,0,0,0.168,0,0.2352,0.3168
0.112,0.032,-1.4,0,-0.08,-0,0,-0.08,-0,0,-0.08,-0,0,-0.08,-0,0,-0.08,-0,-0.504,1.2656
0.272,-0.048,-0.85,0.16,-0.16,-0.5,0.104,-0.216,-0.325,0,-0.32,-0,0,-0.32,-0,0,-0.32,-0,-0.5344,1.3136
0,-0.008,-0,0,-0.008,-0,0,-0.008,-0,0,-0.008,-0,0,-0.008,-0,0,-0.008,-0,0.2048,0.4064
0,-0.192,-0,0,-0.192,-0,0,-0.192,-0,0,-0.192,-0,0,-0.192,-0,0,-0.192,-0,-0.28,0.648
0,-0.128,-0,0,-0.128,-0,0,-0.128,-0,0,-0.128,-0,0,-0.128,-0,0,-0.128,-0,0.1744,0.4464
1.024,0.816,-4.9231,0.288,0.08,-1.3846,0.224,0.016,-1.0769,0,-0.208,-0,0,-0.208,-0,0,-0.208,-0,-0.4448,1.0656
-0.432,-0.24,-2.25,-0.432,-0.288,-3,0.36,0.472,3.2143,0.168,0.224,3,0,0.056,0,0,0.056,0,0.1744,0.4496
0.56,0.056,-1.1111,0.56,0.056,-1.1111,0.56,0.056,-1.1111,0.56,0.056,-1.1111,0.152,-0.352,-0.30159,0,-0.504,-0,-0.64,1.5136
0,-0.504,-0,0,-0.504,-0,0,-0.504,-0,0,-0.504,-0,0.152,-0.352,-0.30159,0,-0.504,-0,-0.64,1.5136
0,-0.48,-0,0,-0.48,-0,0,-0.48,-0,0,-0.48,-0,0,-0.48,-0,0,-0.48,-0,-0.1984,0.4672
0.408,-0.048,-0.89474,0.128,-0.328,-0.2807,0.104,-0.352,-0.22807,0.032,-0.424,-0.070175,0,-0.456,-0,0,-0.456,-0,-0.2416,0.592
0,0.12,0,0,0.12,0,0,0.12,0,0,0.12,0,0,0.12,0,0,0.12,0,0.0832,0.1904
0.376,0.48,3.6154,0.128,0.184,2.2857,0.104,0.144,2.6,0.048,0.064,3,0,0.016,0,0,0.016,0,0.1168,0.168
0.08,-0.144,-0.35714,0.04,-0.184,-0.17857,0,-0.224,-0,0,-0.224,-0,0,-0.224,-0,0,-0.224,-0,-0.3232,0.704
-0.104,-0.224,0.86667,-0.104,-0.224,0.86667,-0.104,-0.224,0.86667,0.192,0.072,-1.6,0.048,-0.072,-0.4,0,-0.12,-0,-0.368,0.864
0,0.28,0,0,0.28,0,0,0.28,0,0,0.28,0,0,0.28,0,0,0.28,0,0.072,0.2656
0,0.264,0,0,0.264,0,0,0.264,0,0,0.264,0,0,0.264,0,0,0.264,0,0.0736,0.2912
0.128,-0.032,-0.8,0.072,-0.088,-0.45,0.016,-0.144,-0.1,0,-0.16,-0,0,-0.16,-0,0,-0.16,-0,-0.4832,1.1136
0.104,0.168,1.625,0.056,0.088,1.75,0,0.032,0,0,0.032,0,0,0.032,0,0,0.032,0,0.168,0.6224
0.136,0.216,1.7,0.08,0.136,1.4286,0.032,0.056,1.3333,0,0.024,0,0,0.024,0,0,0.024,0,0.1584,0.5744
0.072,0.112,1.8,0,0.04,0,0,0.04,0,0,0.04,0,0,0.04,0,0,0.04,0,0.1232,0.336
0.128,0.2,1.7778,0.08,0.12,2,0.032,0.048,2,0,0.016,0,0,0.016,0,0,0.016,0,0.1488,0.392
0.112,0.176,1.75,0.056,0.088,1.75,0,0.032,0,0,0.032,0,0,0.032,0,0,0.032,0,0.152,0.4736
0.184,-0.216,-0.46,0.104,-0.296,-0.26,0.064,-0.336,-0.16,0,-0.4,-0,0,-0.4,-0,0,-0.4,-0,-0.3968,0.9632
0.016,0.032,1,0,0.016,0,0,0.016,0,0,0.016,0,0,0.016,0,0,0.016,0,0.1328,0.3552
0.144,0.216,2,0.096,0.144,2,0.064,0.096,2,0,0.032,0,0,0.032,0,0,0.032,0,0.1088,0.2832
0,0.072,0,0.096,0.144,2,0.064,0.096,2,0,0.032,0,0,0.032,0,0,0.032,0,0.1088,0.2832
0.304,0.512,1.4615,0.152,0.24,1.7273,0.128,0.2,1.7778,0.064,0.104,1.6,0,0.04,0,0,0.04,0,0.224,0.3296
0.104,-0.216,-0.325,0,-0.32,-0,0,-0.32,-0,0,-0.32,-0,0,-0.32,-0,0,-0.32,-0,-0.2432,0.5648
0,-0.112,-0,0,-0.112,-0,0,-0.112,-0,0,-0.112,-0,0,-0.112,-0,0,-0.112,-0,-0.272,0.7296
0.232,0.048,-1.2609,0.208,0.024,-1.1304,0.2,0.016,-1.087,0.176,-0.008,-0.95652,0.04,-0.144,-0.21739,0,-0.184,-0,-0.1888,0.5216
0.048,0.088,1.2,0,0.04,0,0,0.04,0,0,0.04,0,0,0.04,0,0,0.04,0,0.1904,0.4624
0.256,0.352,2.6667,0.144,0.216,2,0.12,0.176,2.1429,0,0.056,0,0,0.056,0,0,0.056,0,0.1552,0.4416
0.12,0.184,1.875,0.064,0.096,2,0,0.032,0,0,0.032,0,0,0.032,0,0,0.032,0,0.1632,0.5008
0.304,0.416,2.7143,0.112,0.192,1.4,0.072,0.128,1.2857,0,0.056,0,0,0.056,0,0,0.056,0,0.1744,0.4832
0.296,0.392,3.0833,0.128,0.192,2,0.096,0.144,2,0,0.048,0,0,0.048,0,0,0.048,0,0.1056,0.3024
0.368,0.48,3.2857,0.216,0.296,2.7,0.136,0.2,2.125,0.04,0.056,2.5,0,0.016,0,0,0.016,0,0.1632,0.5024
0.112,0.184,1.5556,0.056,0.096,1.4,0,0.04,0,0,0.04,0,0,0.04,0,0,0.04,0,0.1504,0.4544
0.096,0.048,-2,0.048,0,-1,0,-0.048,-0,0,-0.048,-0,0,-0.048,-0,0,-0.048,-0,-0.4112,0.896
0.032,0.056,1.3333,0,0.024,0,0,0.024,0,0,0.024,0,0,0.024,0,0,0.024,0,0.1088,0.3632
0.112,0.16,2.3333,0.056,0.08,2.3333,0,0.024,0,0,0.024,0,0,0.024,0,0,0.024,0,0.1072,0.392
0.368,0.496,2.875,0.272,0.352,3.4,0.136,0.2,2.125,0.024,0.032,3,0,0.008,0,0,0.008,0,0.1312,0.4208
0.104,0.16,1.8571,0,0.056,0,0,0.056,0,0,0.056,0,0,0.056,0,0,0.056,0,0.1056,0.3504
0,-0.256,-0,0,-0.256,-0,0,-0.256,-0,0,-0.256,-0,0,-0.256,-0,0,-0.256,-0,-0.28,0.6928
0.128,-0.08,-0.61538,0,-0.208,-0,0,-0.208,-0,0,-0.208,-0,0,-0.208,-0,0,-0.208,-0,-0.256,0.496
0.128,0.184,2.2857,0.072,0.104,2.25,0,0.032,0,0,0.032,0,0,0.032,0,0,0.032,0,0.1216,0.4272
0.104,-0.464,-0.1831,0.056,-0.512,-0.098592,0,-0.568,-0,0,-0.568,-0,0,-0.568,-0,0,-0.568,-0,-0.3136,0.5536
0.176,-0.416,-0.2973,0.12,-0.472,-0.2027,0.072,-0.52,-0.12162,0,-0.592,-0,0,-0.592,-0,0,-0.592,-0,-0.384,0.7232
0.12,-0.344,-0.25862,0,-0.464,-0,0,-0.464,-0,0,-0.464,-0,0,-0.464,-0,0,-0.464,-0,-0.3984,0.9968
0.176,0.248,2.4444,0.056,0.08,2.3333,0,0.024,0,0,0.024,0,0,0.024,0,0,0.024,0,0.2336,0.4384
0.112,0.192,1.4,0.064,0.112,1.3333,0.032,0.056,1.3333,0,0.024,0,0,0.024,0,0,0.024,0,0.1776,0.4144
0,-0.096,-0,0,-0.096,-0,0,-0.096,-0,0,-0.096,-0,0,-0.096,-0,0,-0.096,-0,0.1008,0.1296
0,-0.096,-0,0,-0.096,-0,0,-0.096,-0,0,-0.096,-0,0,-0.096,-0,0,-0.096,-0,0.1312,0.2976
0,-0.312,-0,0,-0.312,-0,0,-0.312,-0,0,-0.312,-0,0,-0.312,-0,0,-0.312,-0,-0.4208,1.0576
0.256,0.008,-1.0323,0.136,-0.112,-0.54839,0.096,-0.152,-0.3871,0,-0.248,-0,0,-0.248,-0,0,-0.248,-0,-0.3584,0.8624
0,0.216,0,0,0.216,0,0,0.216,0,0,0.216,0,0,0.216,0,0,0.216,0,0.208,0.5008
0,-0.296,-0,0,-0.296,-0,0,-0.296,-0,0,-0.296,-0,0,-0.296,-0,0,-0.296,-0,-0.3232,0.7472
0.112,0.2,1.2727,0.064,0.12,1.1429,0.032,0.064,1,0,0.032,0,0,0.032,0,0,0.032,0,0.168,0.3728
0.12,0.208,1.3636,0.064,0.112,1.3333,0,0.048,0,0,0.048,0,0,0.048,0,0,0.048,0,0.1968,0.4512
-0.168,0.032,-0.84,0.144,0.24,1.5,0.072,0.128,1.2857,0,0.056,0,0,0.056,0,0,0.056,0,0.1616,0.3632
0.112,0.192,1.4,0.056,0.088,1.75,0,0.032,0,0,0.032,0,0,0.032,0,0,0.032,0,0.1776,0.3184
0,0.08,0,0,0.08,0,0,0.08,0,0,0.08,0,0,0.08,0,0,0.08,0,0.1344,0.3568
0.104,0.184,1.3,0.056,0.096,1.4,0,0.04,0,0,0.04,0,0,0.04,0,0,0.04,0,0.1888,0.4272
0.088,-0.24,-0.26829,0,-0.328,-0,0,-0.328,-0,0,-0.328,-0,0,-0.328,-0,0,-0.328,-0,-0.4224,1.0432
0.128,0.216,1.4545,0.08,0.136,1.4286,0.056,0.088,1.75,0,0.032,0,0,0.032,0,0,0.032,0,0.1664,0.4464
0.056,0.104,1.1667,0,0.048,0,0,0.048,0,0,0.048,0,0,0.048,0,0,0.048,0,0.1104,0.2848
0.08,0.136,1.4286,0,0.056,0,0,0.056,0,0,0.056,0,0,0.056,0,0,0.056,0,0.1472,0.352
0.112,0.192,1.4,0.056,0.104,1.1667,0.024,0.04,1.5,0,0.016,0,0,0.016,0,0,0.016,0,0.1824,0.448
0.08,0.152,1.1111,0.024,0.048,1,0,0.024,0,0,0.024,0,0,0.024,0,0,0.024,0,0.1728,0.4272
0.088,-0.336,-0.20755,0.04,-0.384,-0.09434,0,-0.424,-0,0,-0.424,-0,0,-0.424,-0,0,-0.424,-0,-0.4096,0.9904
0.088,0.152,1.375,0.04,0.064,1.6667,0,0.024,0,0,0.024,0,0,0.024,0,0,0.024,0,0.1632,0.416
0.096,-0.256,-0.27273,0.04,-0.312,-0.11364,0,-0.352,-0,0,-0.352,-0,0,-0.352,-0,0,-0.352,-0,-0.432,1.0336
0.24,0.352,2.1429,0.136,0.216,1.7,0.08,0.128,1.6667,0,0.048,0,0,0.048,0,0,0.048,0,0.1904,0.3728
0.12,0.2,1.5,0.056,0.096,1.4,0,0.04,0,0,0.04,0,0,0.04,0,0,0.04,0,0.1872,0.4032
0.08,0.144,1.25,0,0.064,0,0,0.064,0,0,0.064,0,0,0.064,0,0,0.064,0,0.1872,0.4224
0.088,-0.176,-0.33333,0.032,-0.232,-0.12121,0,-0.264,-0,0,-0.264,-0,0,-0.264,-0,0,-0.264,-0,-0.4208,1.0064
0.096,0.16,1.5,0.04,0.072,1.25,0,0.032,0,0,0.032,0,0,0.032,0,0,0.032,0,0.1472,0.3888
0.104,0.184,1.3,0.056,0.096,1.4,0,0.04,0,0,0.04,0,0,0.04,0,0,0.04,0,0.1808,0.456
0.072,0.136,1.125,0,0.064,0,0,0.064,0,0,0.064,0,0,0.064,0,0,0.064,0,0.1712,0.4192
0.088,0.152,1.375,0.04,0.064,1.6667,0,0.024,0,0,0.024,0,0,0.024,0,0,0.024,0,0.1728,0.4304
0.112,0.192,1.4,0.064,0.112,1.3333,0.032,0.048,2,0,0.016,0,0,0.016,0,0,0.016,0,0.176,0.4544
0.056,0.096,1.4,0,0.04,0,0,0.04,0,0,0.04,0,0,0.04,0,0,0.04,0,0.1776,0.4624
0.12,0.216,1.25,0.056,0.112,1,0.008,0.016,1,0,0.008,0,0,0.008,0,0,0.008,0,0.1552,0.2656
0.32,0.072,-1.2903,0.152,-0.096,-0.6129,0.08,-0.168,-0.32258,0,-0.248,-0,0,-0.248,-0,0,-0.248,-0,-0.5312,1.2352
0.072,0.136,1.125,0,0.064,0,0,0.064,0,0,0.064,0,0,0.064,0,0,0.064,0,0.1936,0.6096
0.176,-0.008,-0.95652,0.072,-0.112,-0.3913,0.016,-0.168,-0.086957,0,-0.184,-0,0,-0.184,-0,0,-0.184,-0,-0.424,1.024
0.224,0.368,1.5556,0.128,0.224,1.3333,0.072,0.136,1.125,0,0.064,0,0,0.064,0,0,0.064,0,0.1792,0.328
0.2,0.064,-1.4706,0.096,-0.04,-0.70588,0.056,-0.08,-0.41176,0,-0.136,-0,0,-0.136,-0,0,-0.136,-0,-0.4576,1.088
0.192,0.136,-3.4286,0.128,0.072,-2.2857,0.096,0.04,-1.7143,0,-0.056,-0,0,-0.056,-0,0,-0.056,-0,-0.3056,0.8256
-0.024,0.144,-0.14286,-0.024,0.144,-0.14286,0.232,0.352,1.9333,0.096,0.16,1.5,0,0.064,0,0,0.064,0,0.1248,0.2368
0,0.064,0,0,0.064,0,0,0.064,0,0,0.064,0,0,0.064,0,0,0.064,0,0.1248,0.264
0.224,0.312,2.5455,0.16,0.224,2.5,0.12,0.168,2.5,0,0.048,0,0,0.048,0,0,0.048,0,0.1712,0.544
1.104,0.92,-6,0.272,0.088,-1.4783,0.192,0.008,-1.0435,0.072,-0.112,-0.3913,0,-0.184,-0,0,-0.184,-0,-0.448,1.072
0,-0.168,-0,0,-0.168,-0,0,-0.168,-0,0,-0.168,-0,0,-0.168,-0,0,-0.168,-0,-0.2912,0.6448
0,-0.2,-0,0,-0.2,-0,0,-0.2,-0,0,-0.2,-0,0,-0.2,-0,0,-0.2,-0,0.1104,0.1424
0.072,0.112,1.8,0,0.04,0,0,0.04,0,0,0.04,0,0,0.04,0,0,0.04,0,0.1104,0.224
0,-0.136,-0,0,-0.136,-0,0,-0.136,-0,0,-0.136,-0,0,-0.136,-0,0,-0.136,-0,0.0656,0.1856
0.072,-0.08,-0.47368,0,-0.152,-0,0,-0.152,-0,0,-0.152,-0,0,-0.152,-0,0,-0.152,-0,-0.3024,0.624
0.184,0.256,2.5556,0.12,0.168,2.5,0.056,0.088,1.75,0,0.032,0,0,0.032,0,0,0.032,0,0.1104,0.2752
0.048,0.128,0.6,0.112,0.168,2,0.064,0.104,1.6,0,0.04,0,0,0.04,0,0,0.04,0,0.0848,0.1824
0,-0.152,-0,0,-0.152,-0,0,-0.152,-0,0,-0.152,-0,0,-0.152,-0,0,-0.152,-0,0.064,0.1648
0,0.12,0,0,0.12,0,0,0.12,0,0,0.12,0,0,0.12,0,0,0.12,0,0.0976,0.1408
0.08,-0.072,-0.52632,0.032,-0.12,-0.21053,0,-0.152,-0,0,-0.152,-0,0,-0.152,-0,0,-0.152,-0,-0.1408,0.3616
0.328,0.416,3.7273,0.12,0.184,1.875,0.088,0.136,1.8333,0,0.048,0,0,0.048,0,0,0.048,0,0.1168,0.3696
0.128,0.184,2.2857,0.072,0.112,1.8,0.024,0.04,1.5,0,0.016,0,0,0.016,0,0,0.016,0,0.224,0.4672
-0.024,0.08,-0.23077,0.128,0.192,2,0.104,0.16,1.8571,0.032,0.048,2,0,0.016,0,0,0.016,0,0.0976,0.176
0.288,0.384,3,0.128,0.192,2,0.096,0.144,2,0,0.048,0,0,0.048,0,0,0.048,0,0.12,0.2592
0.096,0.144,2,0.048,0.072,2,0,0.024,0,0,0.024,0,0,0.024,0,0,0.024,0,0.1456,0.2672
0.088,0.144,1.5714,0.04,0.072,1.25,0,0.032,0,0,0.032,0,0,0.032,0,0,0.032,0,0.1744,0.3328
0.056,0.088,1.75,0,0.032,0,0,0.032,0,0,0.032,0,0,0.032,0,0,0.032,0,0.1872,0.3168
0,-0.128,-0,0,-0.128,-0,0,-0.128,-0,0,-0.128,-0,0,-0.128,-0,0,-0.128,-0,0.0688,0.1872
0.104,0.104,Inf,0.032,0.032,Inf,0,0,NaN,0,0,NaN,0,0,NaN,0,0,NaN,0.0528,0.2384
0,-0.048,-0,0,-0.048,-0,0,-0.048,-0,0,-0.048,-0,0,-0.048,-0,0,-0.048,-0,0.0736,0.2032
0.16,0.216,2.8571,0.056,0.112,1,0,0.056,0,0,0.056,0,0,0.056,0,0,0.056,0,0.0944,0.2976
0.296,0.32,12.333,0.128,0.152,5.3333,0.088,0.112,3.6667,0,0.024,0,0,0.024,0,0,0.024,0,-0.4256,1.0544
0.136,0.184,2.8333,0.088,0.136,1.8333,0.056,0.104,1.1667,0,0.048,0,0,0.048,0,0,0.048,0,-0.3456,0.9024
0.128,0.208,1.6,0.072,0.128,1.2857,0.048,0.08,1.5,0,0.032,0,0,0.032,0,0,0.032,0,0.1616,0.3968
0,-0.104,-0,0,-0.104,-0,0,-0.104,-0,0,-0.104,-0,0,-0.104,-0,0,-0.104,-0,0.1248,0.2736
0.136,-0.184,-0.425,0.088,-0.232,-0.275,0.056,-0.264,-0.175,0,-0.32,-0,0,-0.32,-0,0,-0.32,-0,-0.368,0.8816
0,-0.168,-0,0,-0.168,-0,0,-0.168,-0,0,-0.168,-0,0,-0.168,-0,0,-0.168,-0,0.1104,0.2864
0.088,0.144,1.5714,0.008,0.016,1,0,0.008,0,0,0.008,0,0,0.008,0,0,0.008,0,0.2144,0.4416
0.12,0.28,0.75,0.288,0.392,2.7692,0.128,0.224,1.3333,0.056,0.104,1.1667,0,0.048,0,0,0.048,0,0.1344,0.288
0,0.008,0,0,0.008,0,0,0.008,0,0,0.008,0,0,0.008,0,0,0.008,0,0.0704,0.2496
0.096,0.072,-4,0.064,0.04,-2.6667,0.032,0.008,-1.3333,0,-0.024,-0,0,-0.024,-0,0,-0.024,-0,-0.3872,0.9248
0,0,NaN,0,0,NaN,0,0,NaN,0,0,NaN,0,0,NaN,0,0,NaN,0.112,0.3152
0.336,0.432,3.5,0.128,0.2,1.7778,0.104,0.168,1.625,0.032,0.048,2,0,0.016,0,0,0.016,0,0.1104,0.2528
0,-0.168,-0,0,-0.168,-0,0,-0.168,-0,0,-0.168,-0,0,-0.168,-0,0,-0.168,-0,0.0784,0.3024
0.088,0.152,1.375,0.04,0.072,1.25,0,0.032,0,0,0.032,0,0,0.032,0,0,0.032,0,0.1744,0.4192
0,-0.168,-0,0,-0.168,-0,0,-0.168,-0,0,-0.168,-0,0,-0.168,-0,0,-0.168,-0,0.1616,0.3824
0.176,0.288,1.5714,0.096,0.176,1.2,0.072,0.136,1.125,0,0.064,0,0,0.064,0,0,0.064,0,0.2064,0.624
0.144,0.224,1.8,0.064,0.096,2,0,0.032,0,0,0.032,0,0,0.032,0,0,0.032,0,0.2384,0.6224
0.16,0.264,1.5385,0.072,0.144,1,0.032,0.064,1,0,0.032,0,0,0.032,0,0,0.032,0,0.2656,0.6304
0.088,0.144,1.5714,0,0.056,0,0,0.056,0,0,0.056,0,0,0.056,0,0,0.056,0,0.2272,0.512
0,-0.224,-0,0,-0.224,-0,0,-0.224,-0,0,-0.224,-0,0,-0.224,-0,0,-0.224,-0,-0.2512,0.648
0.12,0.216,1.25,0,0.096,0,0,0.096,0,0,0.096,0,0,0.096,0,0,0.096,0,0.2784,0.552
0.136,-0.208,-0.39535,0.056,-0.288,-0.16279,0,-0.344,-0,0,-0.344,-0,0,-0.344,-0,0,-0.344,-0,-0.44,1.0304
0,-0.36,-0,0,-0.36,-0,0,-0.36,-0,0,-0.36,-0,0,-0.36,-0,0,-0.36,-0,0.1008,0.2752
0.128,0.208,1.6,0.08,0.128,1.6667,0.04,0.064,1.6667,0,0.024,0,0,0.024,0,0,0.024,0,0.1456,0.44
0.048,-0.328,-0.12766,0,-0.376,-0,0,-0.376,-0,0,-0.376,-0,0,-0.376,-0,0,-0.376,-0,-0.2288,0.6176
0.12,-0.376,-0.24194,0.08,-0.416,-0.16129,0.048,-0.448,-0.096774,0,-0.496,-0,0,-0.496,-0,0,-0.496,-0,-0.416,0.9936
0,-0.272,-0,0,-0.272,-0,0,-0.272,-0,0,-0.272,-0,0,-0.272,-0,0,-0.272,-0,0.1232,0.3328
0.712,0.296,-1.7115,0.4,-0.016,-0.96154,0.152,-0.264,-0.36538,0,-0.416,-0,0,-0.416,-0,0,-0.416,-0,-0.2128,0.44
0.112,0.192,1.4,0.064,0.12,1.1429,0.032,0.056,1.3333,0,0.024,0,0,0.024,0,0,0.024,0,0.1664,0.376
0,-0.232,-0,0,-0.232,-0,0,-0.232,-0,0,-0.232,-0,0,-0.232,-0,0,-0.232,-0,0.1312,0.1696
0.16,0.248,1.8182,0.104,0.168,1.625,0.08,0.128,1.6667,0,0.048,0,0,0.048,0,0,0.048,0,0.128,0.2416
0,-0.088,-0,0,-0.088,-0,0,-0.088,-0,0,-0.088,-0,0,-0.088,-0,0,-0.088,-0,0.0736,0.128
0,-0.264,-0,0,-0.264,-0,0,-0.264,-0,0,-0.264,-0,0,-0.264,-0,0,-0.264,-0,-0.224,0.6304
0.136,-0.104,-0.56667,0.096,-0.144,-0.4,0.064,-0.176,-0.26667,0,-0.24,-0,0,-0.24,-0,0,-0.24,-0,-0.2272,0.5552
0,-0.192,-0,0,-0.192,-0,0,-0.192,-0,0,-0.192,-0,0,-0.192,-0,0,-0.192,-0,-0.1376,0.3968
0.032,-0.208,-0.13333,0,-0.24,-0,0,-0.24,-0,0,-0.24,-0,0,-0.24,-0,0,-0.24,-0,-0.2736,0.6176
0.048,-0.232,-0.17143,0,-0.28,-0,0,-0.28,-0,0,-0.28,-0,0,-0.28,-0,0,-0.28,-0,-0.4016,0.9632
0,0.248,0,0,0.248,0,0,0.248,0,0,0.248,0,0,0.248,0,0,0.248,0,0.1456,0.4
0.112,-0.144,-0.4375,0.072,-0.184,-0.28125,0.048,-0.208,-0.1875,0,-0.256,-0,0,-0.256,-0,0,-0.256,-0,-0.2912,0.6672
0,-0.072,-0,0,-0.072,-0,0,-0.072,-0,0,-0.072,-0,0,-0.072,-0,0,-0.072,-0,0.1696,0.416
0.152,-0.104,-0.59375,0.096,-0.16,-0.375,0.072,-0.184,-0.28125,0,-0.256,-0,0,-0.256,-0,0,-0.256,-0,-0.3248,0.8192
0.096,0.192,1,0.056,0.112,1,0,0.056,0,0,0.056,0,0,0.056,0,0,0.056,0,0.1584,0.3936
0.152,0.24,1.7273,0.096,0.16,1.5,0.072,0.12,1.5,0,0.048,0,0,0.048,0,0,0.048,0,0.1504,0.4704
0.136,0.224,1.5455,0.08,0.144,1.25,0.04,0.072,1.25,0,0.032,0,0,0.032,0,0,0.032,0,0.1104,0.3344
0.176,0.256,2.2,0.12,0.176,2.1429,0.088,0.128,2.2,0,0.04,0,0,0.04,0,0,0.04,0,0.1408,0.456
0.168,0.024,-1.1667,0.12,-0.024,-0.83333,0.088,-0.056,-0.61111,0.016,-0.128,-0.11111,0,-0.144,-0,0,-0.144,-0,-0.224,0.5232
0.008,-0.136,-0.055556,0,-0.144,-0,0,-0.144,-0,0,-0.144,-0,0,-0.144,-0,0,-0.144,-0,-0.1792,0.4304
0.264,0.04,-1.1786,0.152,-0.072,-0.67857,0.096,-0.128,-0.42857,0,-0.224,-0,0,-0.224,-0,0,-0.224,-0,-0.3008,0.752
0.096,0.152,1.7143,0.048,0.072,2,0,0.024,0,0,0.024,0,0,0.024,0,0,0.024,0,0.1536,0.4208
0.096,0.152,1.7143,0.032,0.056,1.3333,0,0.024,0,0,0.024,0,0,0.024,0,0,0.024,0,0.152,0.456
0,-0.016,-0,0,-0.016,-0,0,-0.016,-0,0,-0.016,-0,0,-0.016,-0,0,-0.016,-0,0.1264,0.2
0,-0.216,-0,0,-0.216,-0,0,-0.216,-0,0,-0.216,-0,0,-0.216,-0,0,-0.216,-0,0.1264,0.2
0.104,-0.248,-0.29545,0.056,-0.296,-0.15909,0,-0.352,-0,0,-0.352,-0,0,-0.352,-0,0,-0.352,-0,-0.3744,0.8624
0,-0.344,-0,0,-0.344,-0,0,-0.344,-0,0,-0.344,-0,0,-0.344,-0,0,-0.344,-0,-0.2576,0.5904
-0.504,-0.456,-10.5,-0.504,-0.472,-15.75,0,0.032,0,0,0.032,0,0,0.032,0,0,0.032,0,0.1072,0.2576
0.52,0.032,-1.0656,0.52,0.032,-1.0656,0.592,0.104,-1.2131,0.368,-0.12,-0.7541,0.232,-0.256,-0.47541,0.2,-0.288,-0.40984,-0.2704,0.768
0,0.152,0,0,0.152,0,0,0.152,0,0,0.152,0,0,0.152,0,0,0.152,0,0.0992,0.416
0.568,0.152,-1.3654,0.392,-0.024,-0.94231,0.232,-0.184,-0.55769,0.16,-0.256,-0.38462,0,-0.416,-0,0,-0.416,-0,-0.3328,0.7664
0.28,-0.056,-0.83333,0.176,-0.16,-0.52381,0.152,-0.184,-0.45238,0,-0.336,-0,0,-0.336,-0,0,-0.336,-0,-0.4672,1.168
0.16,-0.336,-0.32258,0.176,-0.32,-0.35484,0.08,-0.416,-0.16129,0,-0.496,-0,0,-0.496,-0,0,-0.496,-0,-0.2048,0.5104
0,-0.496,-0,0.176,-0.32,-0.35484,0.08,-0.416,-0.16129,0,-0.496,-0,0,-0.496,-0,0,-0.496,-0,-0.2048,0.5104
0.12,-0.344,-0.25862,0,-0.464,-0,0,-0.464,-0,0,-0.464,-0,0,-0.464,-0,0,-0.464,-0,-0.2592,0.5648
0.016,0.024,2,0.016,0.024,2,0.016,0.024,2,0.016,0.024,2,0,0.008,0,0,0.008,0,0.0592,0.1792
0.248,0.24,-31,0.144,0.136,-18,0.088,0.08,-11,0,-0.008,-0,0,-0.008,-0,0,-0.008,-0,-0.5632,1.416
0.128,0.232,1.2308,0.072,0.136,1.125,0.024,0.04,1.5,0,0.016,0,0,0.016,0,0,0.016,0,0.1808,0.4272
0.128,0.24,1.1429,0.08,0.152,1.1111,0.04,0.072,1.25,0,0.032,0,0,0.032,0,0,0.032,0,0.2208,0.488
0,0.064,0,0,0.064,0,0,0.064,0,0,0.064,0,0,0.064,0,0,0.064,0,0.1952,0.2192
0.104,0.2,1.0833,0.064,0.12,1.1429,0.024,0.04,1.5,0,0.016,0,0,0.016,0,0,0.016,0,0.2,0.3232
0,-0.392,-0,0,-0.392,-0,0,-0.392,-0,0,-0.392,-0,0,-0.392,-0,0,-0.392,-0,-0.424,0.9712
0.104,-0.304,-0.2549,0,-0.408,-0,0,-0.408,-0,0,-0.408,-0,0,-0.408,-0,0,-0.408,-0,-0.4816,1.2048
0.08,0.168,0.90909,0.032,0.064,1,0,0.032,0,0,0.032,0,0,0.032,0,0,0.032,0,0.1968,0.3136
0,0.048,0,0,0.048,0,0,0.048,0,0,0.048,0,0,0.048,0,0,0.048,0,0.2384,0.392
0.096,0.232,0.70588,0.032,0.08,0.66667,0,0.048,0,0,0.048,0,0,0.048,0,0,0.048,0,0.1552,0.3456
0.096,0.232,0.70588,0.032,0.08,0.66667,0,0.048,0,0,0.048,0,0,0.048,0,0,0.048,0,0.1552,0.3456
0.12,0.2,1.5,0.056,0.096,1.4,0,0.04,0,0,0.04,0,0,0.04,0,0,0.04,0,0.1824,0.5328
0.104,0.176,1.4444,0,0.072,0,0,0.072,0,0,0.072,0,0,0.072,0,0,0.072,0,0.1952,0.4896
0.096,0.144,2,0.032,0.048,2,0,0.016,0,0,0.016,0,0,0.016,0,0,0.016,0,0.144,0.44
0.072,0.136,1.125,0.048,0.088,1.2,0,0.04,0,0,0.04,0,0,0.04,0,0,0.04,0,0.12,0.344
0.072,0.136,1.125,0.016,0.032,1,0,0.016,0,0,0.016,0,0,0.016,0,0,0.016,0,0.12,0.3136
0.032,0.048,2,0,0.016,0,0,0.016,0,0,0.016,0,0,0.016,0,0,0.016,0,0.1216,0.2928
0,-0.48,-0,0,-0.48,-0,0,-0.48,-0,0,-0.48,-0,0,-0.48,-0,0,-0.48,-0,0.1392,0.3152
0.112,-0.36,-0.23729,0.072,-0.4,-0.15254,0.016,-0.456,-0.033898,0,-0.472,-0,0,-0.472,-0,0,-0.472,-0,-0.3312,0.8
0.264,-0.224,-0.54098,0.152,-0.336,-0.31148,0.12,-0.368,-0.2459,0,-0.488,-0,0,-0.488,-0,0,-0.488,-0,-0.3328,0.6992
0.088,-0.256,-0.25581,0.048,-0.296,-0.13953,0,-0.344,-0,0,-0.344,-0,0,-0.344,-0,0,-0.344,-0,-0.2416,0.8736
0.16,-0.232,-0.40816,0.096,-0.296,-0.2449,0.064,-0.328,-0.16327,0,-0.392,-0,0,-0.392,-0,0,-0.392,-0,-0.3168,0.8128
0,-0.496,-0,0,-0.496,-0,0,-0.496,-0,0,-0.496,-0,0,-0.496,-0,0,-0.496,-0,-0.296,0.6944
0,0.144,0,0,0.144,0,0,0.144,0,0,0.144,0,0,0.144,0,0,0.144,0,0.1952,0.488
0,-0.2,-0,0,-0.2,-0,0,-0.2,-0,0,-0.2,-0,0,-0.2,-0,0,-0.2,-0,0.1328,0.2896
0,-0.192,-0,0,-0.192,-0,0,-0.192,-0,0,-0.192,-0,0,-0.192,-0,0,-0.192,-0,0.192,0.3408
0,-0.192,-0,0,-0.192,-0,0,-0.192,-0,0,-0.192,-0,0,-0.192,-0,0,-0.192,-0,0.192,0.3408
0,-0.44,-0,0,-0.44,-0,0,-0.44,-0,0,-0.44,-0,0,-0.44,-0,0,-0.44,-0,-0.4096,0.888
0.096,-0.344,-0.21818,0.048,-0.392,-0.10909,0,-0.44,-0,0,-0.44,-0,0,-0.44,-0,0,-0.44,-0,-0.4848,1.136
0.384,-0.08,-0.82759,0.28,-0.184,-0.60345,0.176,-0.288,-0.37931,0,-0.464,-0,0,-0.464,-0,0,-0.464,-0,-0.3488,0.928
0.104,-0.296,-0.26,0.048,-0.352,-0.12,0,-0.4,-0,0,-0.4,-0,0,-0.4,-0,0,-0.4,-0,-0.3632,0.7488
0.04,0.056,2.5,0,0.016,0,0,0.016,0,0,0.016,0,0,0.016,0,0,0.016,0,0.136,0.3584
0.208,0.016,-1.0833,0.208,0.016,-1.0833,0.208,0.016,-1.0833,0.328,0.136,-1.7083,0.192,0,-1,0.128,-0.064,-0.66667,-0.4304,0.9792
0.016,0.024,2,0,0.008,0,0,0.008,0,0,0.008,0,0,0.008,0,0,0.008,0,0.1296,0.4304
0.088,0.144,1.5714,0.04,0.064,1.6667,0,0.024,0,0,0.024,0,0,0.024,0,0,0.024,0,0.1008,0.3472
0.12,0.2,1.5,0.072,0.128,1.2857,0.04,0.08,1,0,0.04,0,0,0.04,0,0,0.04,0,0.1504,0.4768
-0.112,-0.024,-1.2727,0,0.088,0,0,0.088,0,0,0.088,0,0,0.088,0,0,0.088,0,0.1344,0.2816
0.016,0.024,2,0,0.008,0,0,0.008,0,0,0.008,0,0,0.008,0,0,0.008,0,0.1136,0.3104
0.136,-0.336,-0.28814,0.096,-0.376,-0.20339,0.08,-0.392,-0.16949,0,-0.472,-0,0,-0.472,-0,0,-0.472,-0,-0.2064,0.4912
0.352,0.456,3.3846,0.144,0.216,2,0.112,0.168,2,0.016,0.024,2,0,0.008,0,0,0.008,0,0.1296,0.4976
0.064,0.128,1,0,0.064,0,0,0.064,0,0,0.064,0,0,0.064,0,0,0.064,0,0.1488,0.4416
0.12,0.2,1.5,0.072,0.128,1.2857,0.032,0.056,1.3333,0,0.024,0,0,0.024,0,0,0.024,0,0.1616,0.5888
0.104,-0.216,-0.325,0.04,-0.28,-0.125,0,-0.32,-0,0,-0.32,-0,0,-0.32,-0,0,-0.32,-0,-0.2656,0.6512
0,-0.264,-0,0,-0.264,-0,0,-0.264,-0,0,-0.264,-0,0,-0.264,-0,0,-0.264,-0,0.0976,0.1616
-0.248,-0.104,-1.7222,0.176,0.256,2.2,0.128,0.184,2.2857,0,0.056,0,0,0.056,0,0,0.056,0,0.1216,0.4688
0,-0.072,-0,0,-0.072,-0,0,-0.072,-0,0,-0.072,-0,0,-0.072,-0,0,-0.072,-0,0.112,0.2368
0,0.112,0,0,0.112,0,0,0.112,0,0,0.112,0,0,0.112,0,0,0.112,0,0.0976,0.2336
0,-0.032,-0,0,-0.032,-0,0,-0.032,-0,0,-0.032,-0,0,-0.032,-0,0,-0.032,-0,0.088,0.248
0,-0.032,-0,0,-0.032,-0,0,-0.032,-0,0,-0.032,-0,0,-0.032,-0,0,-0.032,-0,0.088,0.248
0.16,0.232,2.2222,0.056,0.088,1.75,0,0.032,0,0,0.032,0,0,0.032,0,0,0.032,0,0.1808,0.4608
0.064,-0.504,-0.11268,0.008,-0.56,-0.014085,0,-0.568,-0,0,-0.568,-0,0,-0.568,-0,0,-0.568,-0,-0.2224,0.5712
0,-0.568,-0,0,-0.568,-0,0,-0.568,-0,0,-0.568,-0,0,-0.568,-0,0,-0.568,-0,-0.1952,0.4928
0,-0.576,-0,0,-0.576,-0,0,-0.576,-0,0,-0.576,-0,0,-0.576,-0,0,-0.576,-0,-0.1888,0.4576
0.008,0.008,Inf,0,0,NaN,0,0,NaN,0,0,NaN,0,0,NaN,0,0,NaN,0.1248,0.1872
0.184,0.32,1.3529,0.144,0.224,1.8,0.112,0.176,1.75,0.032,0.048,2,0,0.016,0,0,0.016,0,0.1536,0.3856
0,-0.08,-0,0,-0.08,-0,0,-0.08,-0,0,-0.08,-0,0,-0.08,-0,0,-0.08,-0,-0.152,0.376
0,-0.256,-0,0,-0.256,-0,0,-0.256,-0,0,-0.256,-0,0,-0.256,-0,0,-0.256,-0,-0.1456,0.408
0,-0.152,-0,0,-0.152,-0,0,-0.152,-0,0,-0.152,-0,0,-0.152,-0,0,-0.152,-0,-0.3152,0.7008
0.072,-0.152,-0.32143,0.016,-0.208,-0.071429,0,-0.224,-0,0,-0.224,-0,0,-0.224,-0,0,-0.224,-0,-0.3088,0.7136
0.112,0.168,2,0.056,0.088,1.75,0,0.032,0,0,0.032,0,0,0.032,0,0,0.032,0,0.1296,0.3888
0.144,-0.264,-0.35294,0.096,-0.312,-0.23529,0.072,-0.336,-0.17647,0,-0.408,-0,0,-0.408,-0,0,-0.408,-0,-0.2464,0.5552
0.088,-0.304,-0.22449,0.04,-0.352,-0.10204,0,-0.392,-0,0,-0.392,-0,0,-0.392,-0,0,-0.392,-0,-0.1696,0.416
0,-0.16,-0,0,-0.16,-0,0,-0.16,-0,0,-0.16,-0,0,-0.16,-0,0,-0.16,-0,0.0896,0.1424
0.144,0.24,1.5,0.096,0.168,1.3333,0.064,0.12,1.1429,0,0.056,0,0,0.056,0,0,0.056,0,0.1584,0.424
0.064,0.112,1.3333,0,0.048,0,0,0.048,0,0,0.048,0,0,0.048,0,0,0.048,0,0.1488,0.336
0.136,0.224,1.5455,0.088,0.144,1.5714,0.064,0.104,1.6,0,0.04,0,0,0.04,0,0,0.04,0,0.1376,0.3312
0,-0.512,-0,0,-0.512,-0,0,-0.512,-0,0,-0.512,-0,0,-0.512,-0,0,-0.512,-0,-0.2288,0.5968
0.064,-0.392,-0.14035,0,-0.456,-0,0,-0.456,-0,0,-0.456,-0,0,-0.456,-0,0,-0.456,-0,-0.592,1.3504
0.368,-0.12,-0.7541,0.272,-0.216,-0.55738,0.176,-0.312,-0.36066,0,-0.488,-0,0,-0.488,-0,0,-0.488,-0,-0.5712,1.3808
-0.08,-0.048,-2.5,0.128,0.16,4,0.04,0.072,1.25,0,0.032,0,0,0.032,0,0,0.032,0,0.08,0.384
0.2,0.296,2.0833,0.112,0.168,2,0.064,0.088,2.6667,0,0.024,0,0,0.024,0,0,0.024,0,0.1632,0.432
0.112,0.216,1.0769,0.032,0.056,1.3333,0,0.024,0,0,0.024,0,0,0.024,0,0,0.024,0,0.2608,0.5344
0,-0.464,-0,0,-0.464,-0,0,-0.464,-0,0,-0.464,-0,0,-0.464,-0,0,-0.464,-0,-0.5328,1.1248
0,-0.144,-0,0,-0.144,-0,0,-0.144,-0,0,-0.144,-0,0,-0.144,-0,0,-0.144,-0,0.1472,0.3408
0.12,0.208,1.3636,0.056,0.088,1.75,0,0.032,0,0,0.032,0,0,0.032,0,0,0.032,0,0.3568,0.2544
0.168,-0.16,-0.5122,0,-0.328,-0,0,-0.328,-0,0,-0.328,-0,0,-0.328,-0,0,-0.328,-0,-0.128,0.4048
0,-0.216,-0,0,-0.216,-0,0,-0.216,-0,0,-0.216,-0,0,-0.216,-0,0,-0.216,-0,0.1744,0.1376
0.12,-0.216,-0.35714,0.272,-0.064,-0.80952,0,-0.336,-0,0,-0.336,-0,0,-0.336,-0,0,-0.336,-0,-0.1232,0.32
0,0.08,0,0,0.08,0,0,0.08,0,0,0.08,0,0,0.08,0,0,0.08,0,0.1952,0.2752
0,-0.24,-0,0,-0.24,-0,0,-0.24,-0,0,-0.24,-0,0,-0.24,-0,0,-0.24,-0,0.1104,0.1232
-0.088,0.056,-0.61111,0.136,0.28,0.94444,0.12,0.224,1.1538,0.08,0.136,1.4286,0,0.056,0,0,0.056,0,0.1264,0.1424
0,0.528,0,0,0.528,0,0,0.528,0,0,0.528,0,0,0.528,0,0,0.528,0,0.0944,0.3008
0.104,0.04,-1.625,0.048,-0.016,-0.75,0,-0.064,-0,0,-0.064,-0,0,-0.064,-0,0,-0.064,-0,-0.456,0.864
0.096,0.104,12,0.048,0.056,6,0,0.008,0,0,0.008,0,0,0.008,0,0,0.008,0,-0.4352,0.8624
0,-0.12,-0,0,-0.12,-0,0,-0.12,-0,0,-0.12,-0,0,-0.12,-0,0,-0.12,-0,-0.2128,0.4864
0.08,-0.016,-0.83333,0.04,-0.056,-0.41667,0.016,-0.08,-0.16667,0,-0.096,-0,0,-0.096,-0,0,-0.096,-0,-0.2864,0.7728
0,-0.072,-0,0,-0.072,-0,0,-0.072,-0,0,-0.072,-0,0,-0.072,-0,0,-0.072,-0,0.1152,0.1664
0,0.16,0,0,0.16,0,0,0.16,0,0,0.16,0,0,0.16,0,0,0.16,0,0.1152,0.1696
0,-0.016,-0,0,-0.016,-0,0,-0.016,-0,0,-0.016,-0,0,-0.016,-0,0,-0.016,-0,0.0976,0.2128
0,-0.136,-0,0,-0.136,-0,0,-0.136,-0,0,-0.136,-0,0,-0.136,-0,0,-0.136,-0,-0.1472,0.3936
0.088,-0.024,-0.78571,0.048,-0.064,-0.42857,0.024,-0.088,-0.21429,0,-0.112,-0,0,-0.112,-0,0,-0.112,-0,-0.2416,0.5952
0,-0.056,-0,0,-0.056,-0,0,-0.056,-0,0,-0.056,-0,0,-0.056,-0,0,-0.056,-0,0.08,0.2
0,-0.024,-0,0,-0.024,-0,0,-0.024,-0,0,-0.024,-0,0,-0.024,-0,0,-0.024,-0,0.0768,0.208
0.08,0.128,1.6667,0.04,0.064,1.6667,0,0.024,0,0,0.024,0,0,0.024,0,0,0.024,0,0.1008,0.2592
0.2,-0.032,-0.86207,0.12,-0.112,-0.51724,0.088,-0.144,-0.37931,0.032,-0.2,-0.13793,0,-0.232,-0,0,-0.232,-0,-0.304,0.6304
0,-0.208,-0,0,-0.208,-0,0,-0.208,-0,0,-0.208,-0,0,-0.208,-0,0,-0.208,-0,0.1344,0.2832
0,-0.312,-0,0,-0.312,-0,0,-0.312,-0,0,-0.312,-0,0,-0.312,-0,0,-0.312,-0,0.0832,0.184
0,-0.28,-0,0,-0.28,-0,0,-0.28,-0,0,-0.28,-0,0,-0.28,-0,0,-0.28,-0,0.0928,0.1872
0,-0.328,-0,0,-0.328,-0,0,-0.328,-0,0,-0.328,-0,0,-0.328,-0,0,-0.328,-0,-0.1968,0.52
0,-0.336,-0,0,-0.336,-0,0,-0.336,-0,0,-0.336,-0,0,-0.336,-0,0,-0.336,-0,0.0656,0.2016
0.104,-0.224,-0.31707,0.056,-0.272,-0.17073,0.04,-0.288,-0.12195,0,-0.328,-0,0,-0.328,-0,0,-0.328,-0,-0.2016,0.5312
0.064,-0.176,-0.26667,0.016,-0.224,-0.066667,0,-0.24,-0,0,-0.24,-0,0,-0.24,-0,0,-0.24,-0,-0.2672,0.592
0.12,0.192,1.6667,0,0.072,0,0,0.072,0,0,0.072,0,0,0.072,0,0,0.072,0,0.0864,0.2416
0,0.048,0,0,0.048,0,0,0.048,0,0,0.048,0,0,0.048,0,0,0.048,0,0.0896,0.1904
0.08,0.128,1.6667,0.04,0.064,1.6667,0.008,0.016,1,0,0.008,0,0,0.008,0,0,0.008,0,0.136,0.2832
0,-0.208,-0,0,-0.208,-0,0,-0.208,-0,0,-0.208,-0,0,-0.208,-0,0,-0.208,-0,0.1008,0.2208
0,-0.216,-0,0,-0.216,-0,0,-0.216,-0,0,-0.216,-0,0,-0.216,-0,0,-0.216,-0,0.0768,0.2576
0.088,-0.416,-0.1746,0.048,-0.456,-0.095238,0.024,-0.48,-0.047619,0,-0.504,-0,0,-0.504,-0,0,-0.504,-0,-0.152,0.4512
0,-0.416,-0,0,-0.416,-0,0,-0.416,-0,0,-0.416,-0,0,-0.416,-0,0,-0.416,-0,0.12,0.2576
0,-0.288,-0,0,-0.288,-0,0,-0.288,-0,0,-0.288,-0,0,-0.288,-0,0,-0.288,-0,0.0736,0.1568
0.176,0.288,1.5714,0.016,0.024,2,0,0.008,0,0,0.008,0,0,0.008,0,0,0.008,0,0.08,0.2496
0.048,0.08,1.5,0,0.032,0,0,0.032,0,0,0.032,0,0,0.032,0,0,0.032,0,0.1136,0.2496
0.128,0,-1,0.08,-0.048,-0.625,0.056,-0.072,-0.4375,0,-0.128,-0,0,-0.128,-0,0,-0.128,-0,-0.2496,0.5984
0.08,0.12,2,0.048,0.08,1.5,0.024,0.04,1.5,0,0.016,0,0,0.016,0,0,0.016,0,0.1024,0.2336
0,0.056,0,0,0.056,0,0,0.056,0,0,0.056,0,0,0.056,0,0,0.056,0,0.12,0.2752
0,-0.048,-0,0,-0.048,-0,0,-0.048,-0,0,-0.048,-0,0,-0.048,-0,0,-0.048,-0,0.1056,0.2496
0.088,0.136,1.8333,0.04,0.064,1.6667,0.008,0.008,Inf,0,0,NaN,0,0,NaN,0,0,NaN,0.0928,0.2384
0,-0.056,-0,0,-0.056,-0,0,-0.056,-0,0,-0.056,-0,0,-0.056,-0,0,-0.056,-0,0.0896,0.1856
0.064,-0.008,-0.88889,0.032,-0.04,-0.44444,0,-0.072,-0,0,-0.072,-0,0,-0.072,-0,0,-0.072,-0,-0.1904,0.4864
0.104,-0.04,-0.72222,0.064,-0.08,-0.44444,0.048,-0.096,-0.33333,0,-0.144,-0,0,-0.144,-0,0,-0.144,-0,-0.1936,0.4944
0,-0.064,-0,0,-0.064,-0,0,-0.064,-0,0,-0.064,-0,0,-0.064,-0,0,-0.064,-0,-0.1888,0.4928
0.272,0.288,17,0.112,0.128,7,0.088,0.104,5.5,0,0.016,0,0,0.016,0,0,0.016,0,-0.2384,0.616
0,0.008,0,0,0.008,0,0,0.008,0,0,0.008,0,0,0.008,0,0,0.008,0,0.1072,0.1904
0.136,0.104,-4.25,0.024,-0.008,-0.75,0,-0.032,-0,0,-0.032,-0,0,-0.032,-0,0,-0.032,-0,-0.2368,0.5312
0.128,0.184,2.2857,0.072,0.104,2.25,0.048,0.072,2,0,0.024,0,0,0.024,0,0,0.024,0,0.1024,0.1824
-0.04,0.08,-0.33333,-0.04,0.08,-0.33333,0.176,0.296,1.4667,0.168,0.288,1.4,0.112,0.16,2.3333,0,0.048,0,0.0992,0.1808
0.696,0.512,-3.7826,0,-0.184,-0,0,-0.184,-0,0,-0.184,-0,0,-0.184,-0,0,-0.184,-0,-0.2112,0.488
0,0.016,0,0,0.016,0,0,0.016,0,0,0.016,0,0,0.016,0,0,0.016,0,0.0864,0.1648
0.168,0.256,1.9091,0.112,0.176,1.75,0.088,0.136,1.8333,0,0.048,0,0,0.048,0,0,0.048,0,0.1216,0.288
0.096,-0.24,-0.28571,0,-0.336,-0,0,-0.336,-0,0,-0.336,-0,0,-0.336,-0,0,-0.336,-0,-0.4656,0.9952
0.056,0.08,2.3333,0,0.024,0,0,0.024,0,0,0.024,0,0,0.024,0,0,0.024,0,0.1072,0.2368
0.056,0.088,1.75,0,0.032,0,0,0.032,0,0,0.032,0,0,0.032,0,0,0.032,0,0.136,0.5664
0.128,0.272,0.88889,0.072,0.144,1,0,0.072,0,0,0.072,0,0,0.072,0,0,0.072,0,0.1744,0.48
0.144,-0.248,-0.36735,0.072,-0.32,-0.18367,0,-0.392,-0,0,-0.392,-0,0,-0.392,-0,0,-0.392,-0,-0.3104,0.8288
0,-0.288,-0,0,-0.288,-0,0,-0.288,-0,0,-0.288,-0,0,-0.288,-0,0,-0.288,-0,0.0832,0.2064
0,-0.288,-0,0,-0.288,-0,0,-0.288,-0,0,-0.288,-0,0,-0.288,-0,0,-0.288,-0,0.0832,0.2064
0,-0.312,-0,0,-0.312,-0,0,-0.312,-0,0,-0.312,-0,0,-0.312,-0,0,-0.312,-0,0.1008,0.1632
0.112,0.16,2.3333,0.032,0.048,2,0,0.016,0,0,0.016,0,0,0.016,0,0,0.016,0,0.0976,0.1648
0,-0.072,-0,0,-0.072,-0,0,-0.072,-0,0,-0.072,-0,0,-0.072,-0,0,-0.072,-0,-0.2512,0.7936
0.136,0.192,2.4286,0.088,0.128,2.2,0.032,0.048,2,0,0.016,0,0,0.016,0,0,0.016,0,0.144,0.4928
0.032,0.056,1.3333,0,0.024,0,0,0.024,0,0,0.024,0,0,0.024,0,0,0.024,0,0.112,0.2016
0.168,0.136,-5.25,0.112,0.08,-3.5,0.072,0.04,-2.25,0,-0.032,-0,0,-0.032,-0,0,-0.032,-0,-0.2,0.504
0,0.024,0,0,0.024,0,0,0.024,0,0,0.024,0,0,0.024,0,0,0.024,0,0.096,0.1456
0,0.216,0,0,0.216,0,0,0.216,0,0,0.216,0,0,0.216,0,0,0.216,0,0.1552,0.2496
0.072,-0.024,-0.75,0,-0.096,-0,0,-0.096,-0,0,-0.096,-0,0,-0.096,-0,0,-0.096,-0,-0.3792,0.944
0.056,0.088,1.75,0,0.032,0,0,0.032,0,0,0.032,0,0,0.032,0,0,0.032,0,0.1104,0.336
0.136,0.192,2.4286,0.088,0.128,2.2,0.056,0.08,2.3333,0,0.024,0,0,0.024,0,0,0.024,0,0.112,0.3008
0.112,0.112,Inf,0.04,0.04,Inf,0,0,NaN,0,0,NaN,0,0,NaN,0,0,NaN,0.1072,0.3184
0.024,0.032,3,0,0.008,0,0,0.008,0,0,0.008,0,0,0.008,0,0,0.008,0,0.0608,0.1456
0,0.44,0,0,0.44,0,0,0.44,0,0,0.44,0,0,0.44,0,0,0.44,0,0.16,0.2496
0.208,0.408,1.04,0.208,0.408,1.04,0.048,0.248,0.24,0.024,0.224,0.12,0.016,0.216,0.08,0.016,0.216,0.08,0.272,0.2592
0.016,0.216,0.08,0.016,0.216,0.08,0.048,0.248,0.24,0.024,0.224,0.12,0.016,0.216,0.08,0.016,0.216,0.08,0.272,0.2592
0.104,-0.032,-0.76471,0.048,-0.088,-0.35294,0,-0.136,-0,0,-0.136,-0,0,-0.136,-0,0,-0.136,-0,-0.48,1.0352
0.056,0.088,1.75,0,0.032,0,0,0.032,0,0,0.032,0,0,0.032,0,0,0.032,0,0.1296,0.2528
0.056,0.104,1.1667,0,0.048,0,0,0.048,0,0,0.048,0,0,0.048,0,0,0.048,0,0.1248,0.2544
0.072,0.12,1.5,0.016,0.024,2,0,0.008,0,0,0.008,0,0,0.008,0,0,0.008,0,0.1696,0.2848
0.136,0.216,1.7,0.08,0.128,1.6667,0.024,0.024,Inf,0,0,NaN,0,0,NaN,0,0,NaN,0.1936,0.4672
0.136,0.216,1.7,0.08,0.128,1.6667,0.024,0.024,Inf,0,0,NaN,0,0,NaN,0,0,NaN,0.1936,0.4672
0.4,0.584,2.1739,0.16,0.264,1.5385,0.096,0.16,1.5,0,0.064,0,0,0.064,0,0,0.064,0,0.1808,0.4032
0.128,0.224,1.3333,0.064,0.12,1.1429,0,0.056,0,0,0.056,0,0,0.056,0,0,0.056,0,0.1744,0.5232
0.248,-0.32,-0.43662,0.128,-0.44,-0.22535,0.072,-0.496,-0.12676,0,-0.568,-0,0,-0.568,-0,0,-0.568,-0,-0.4816,1.2064
0,-0.368,-0,0,-0.368,-0,0,-0.368,-0,0,-0.368,-0,0,-0.368,-0,0,-0.368,-0,0.1584,0.3344
0,-0.112,-0,0,-0.112,-0,0,-0.112,-0,0,-0.112,-0,0,-0.112,-0,0,-0.112,-0,0.2208,0.4912
0.088,-0.608,-0.12644,0,-0.696,-0,0,-0.696,-0,0,-0.696,-0,0,-0.696,-0,0,-0.696,-0,-0.4048,1.0368
0,-0.656,-0,0,-0.656,-0,0,-0.656,-0,0,-0.656,-0,0,-0.656,-0,0,-0.656,-0,-0.144,0.4064
0,-0.64,-0,0,-0.64,-0,0,-0.64,-0,0,-0.64,-0,0,-0.64,-0,0,-0.64,-0,0.0624,0.1152
0.112,0.184,1.5556,0.064,0.104,1.6,0,0.04,0,0,0.04,0,0,0.04,0,0,0.04,0,0.1808,0.5536
0.376,0.04,-1.119,0.224,-0.112,-0.66667,0.128,-0.208,-0.38095,0.056,-0.28,-0.16667,0,-0.336,-0,0,-0.336,-0,-0.3232,0.7856
0.224,-0.056,-0.8,0.096,-0.184,-0.34286,0.064,-0.216,-0.22857,0,-0.28,-0,0,-0.28,-0,0,-0.28,-0,-0.5056,1.1136
0.256,-0.128,-0.66667,0.176,-0.208,-0.45833,0.096,-0.288,-0.25,0,-0.384,-0,0,-0.384,-0,0,-0.384,-0,-0.3072,0.744
0,-0.256,-0,0,-0.256,-0,0,-0.256,-0,0,-0.256,-0,0,-0.256,-0,0,-0.256,-0,0.1376,0.4816
0.032,0.072,0.8,0,0.04,0,0,0.04,0,0,0.04,0,0,0.04,0,0,0.04,0,0.1088,0.3808
0.032,0.072,0.8,0,0.04,0,0,0.04,0,0,0.04,0,0,0.04,0,0,0.04,0,0.1088,0.3808
0,-0.064,-0,0,-0.064,-0,0,-0.064,-0,0,-0.064,-0,0,-0.064,-0,0,-0.064,-0,0.176,0.2208
0.136,0.144,17,0.072,0.08,9,0.032,0.04,4,0,0.008,0,0,0.008,0,0,0.008,0,-0.448,1.056
0.128,0.04,-1.4545,0.048,-0.04,-0.54545,0,-0.088,-0,0,-0.088,-0,0,-0.088,-0,0,-0.088,-0,-0.384,0.9104
0.152,0.216,2.375,0.08,0.12,2,0.024,0.04,1.5,0,0.016,0,0,0.016,0,0,0.016,0,0.1392,0.528
0,-0.008,-0,0,-0.008,-0,0,-0.008,-0,0,-0.008,-0,0,-0.008,-0,0,-0.008,-0,0.1376,0.24
0.12,-0.096,-0.55556,0.048,-0.168,-0.22222,0,-0.216,-0,0,-0.216,-0,0,-0.216,-0,0,-0.216,-0,-0.328,0.8256
0.2,0.272,2.7778,0.136,0.192,2.4286,0.088,0.128,2.2,0,0.04,0,0,0.04,0,0,0.04,0,0.1824,0.5808
-0.056,0.024,-0.7,-0.056,-0.008,-1.1667,-0.056,-0.056,-Inf,0,0,NaN,0,0,NaN,0,0,NaN,0.1296,0.4224
0,-0.152,-0,0,-0.152,-0,0,-0.152,-0,0,-0.152,-0,0,-0.152,-0,0,-0.152,-0,0.1824,0.472
0.152,0.224,2.1111,0.08,0.128,1.6667,0.032,0.056,1.3333,0,0.024,0,0,0.024,0,0,0.024,0,0.1824,0.4288
0,-0.328,-0,0,-0.328,-0,0,-0.328,-0,0,-0.328,-0,0,-0.328,-0,0,-0.328,-0,-0.3712,0.8544
0.36,-0.048,-0.88235,0.192,-0.216,-0.47059,0.168,-0.24,-0.41176,0.096,-0.312,-0.23529,0,-0.408,-0,0,-0.408,-0,-0.408,1.0256
0.112,0.152,2.8,0,0.04,0,0,0.04,0,0,0.04,0,0,0.04,0,0,0.04,0,0.1584,0.4384
1.008,0.784,-4.5,0.264,0.04,-1.1786,0.16,-0.064,-0.71429,0.064,-0.16,-0.28571,0,-0.224,-0,0,-0.224,-0,-0.472,0.9632
0,-0.32,-0,0,-0.32,-0,0,-0.32,-0,0,-0.32,-0,0,-0.32,-0,0,-0.32,-0,0.16,0.2256
0.056,0.112,1,0,0.056,0,0,0.056,0,0,0.056,0,0,0.056,0,0,0.056,0,0.1744,0.4112
0,-0.424,-0,0,-0.424,-0,0,-0.424,-0,0,-0.424,-0,0,-0.424,-0,0,-0.424,-0,-0.2688,0.848
-0.088,-0.424,0.2619,0.328,-0.008,-0.97619,0.112,-0.224,-0.33333,0.064,-0.272,-0.19048,0,-0.336,-0,0,-0.336,-0,-0.1472,0.3856
0,-0.336,-0,0.328,-0.008,-0.97619,0.112,-0.224,-0.33333,0.064,-0.272,-0.19048,0,-0.336,-0,0,-0.336,-0,-0.1472,0.3856
0.048,-0.064,-0.42857,0,-0.112,-0,0,-0.112,-0,0,-0.112,-0,0,-0.112,-0,0,-0.112,-0,-0.2208,0.6592
0.216,0.376,1.35,0.144,0.248,1.3846,0.112,0.2,1.2727,0.016,0.024,2,0,0.008,0,0,0.008,0,0.3104,0.2544
0.176,-0.064,-0.73333,0.12,-0.12,-0.5,0.088,-0.152,-0.36667,0,-0.24,-0,0,-0.24,-0,0,-0.24,-0,-0.3376,0.8704
0.024,-0.176,-0.12,0.024,-0.176,-0.12,0.024,-0.176,-0.12,0,-0.2,-0,0,-0.2,-0,0,-0.2,-0,-0.1904,0.768
0.048,-0.312,-0.13333,0.048,-0.312,-0.13333,0,-0.36,-0,0,-0.36,-0,0,-0.36,-0,0,-0.36,-0,-0.1488,0.68
0.032,-0.272,-0.10526,0.032,-0.272,-0.10526,0.032,-0.272,-0.10526,0,-0.304,-0,0,-0.304,-0,0,-0.304,-0,-0.1328,0.3568
0.256,-0.064,-0.8,0.16,-0.16,-0.5,0.12,-0.2,-0.375,0.04,-0.28,-0.125,0,-0.32,-0,0,-0.32,-0,-0.2096,0.656
0.144,0.312,0.85714,0.016,0.128,0.14286,0.016,0.104,0.18182,0,0.088,0,0,0.088,0,0,0.088,0,0.1808,0.1488
0.184,0.32,1.3529,0.128,0.224,1.3333,0.096,0.168,1.3333,0,0.072,0,0,0.072,0,0,0.072,0,0.216,0.216
0.112,-0.432,-0.20588,0.064,-0.48,-0.11765,0.024,-0.52,-0.044118,0,-0.544,-0,0,-0.544,-0,0,-0.544,-0,-0.312,0.9936
0.024,-0.456,-0.05,0,-0.48,-0,0,-0.48,-0,0,-0.48,-0,0,-0.48,-0,0,-0.48,-0,-0.2736,0.8256
0.112,0.2,1.2727,0.064,0.12,1.1429,0.032,0.056,1.3333,0,0.024,0,0,0.024,0,0,0.024,0,0.3024,0.2512
0,-0.288,-0,0,-0.288,-0,0,-0.288,-0,0,-0.288,-0,0,-0.288,-0,0,-0.288,-0,-0.2928,0.7968
0.112,-0.216,-0.34146,0.064,-0.264,-0.19512,0.024,-0.304,-0.073171,0,-0.328,-0,0,-0.328,-0,0,-0.328,-0,-0.3104,1.0064
0.112,-0.088,-0.56,0.064,-0.136,-0.32,0,-0.2,-0,0,-0.2,-0,0,-0.2,-0,0,-0.2,-0,-0.3184,1.0272
0.08,-0.24,-0.25,0.04,-0.28,-0.125,0,-0.32,-0,0,-0.32,-0,0,-0.32,-0,0,-0.32,-0,-0.2976,0.9776
0.096,0.168,1.3333,0.04,0.072,1.25,0,0.032,0,0,0.032,0,0,0.032,0,0,0.032,0,0.28,0.2592
0.088,-0.04,-0.6875,0.04,-0.088,-0.3125,0,-0.128,-0,0,-0.128,-0,0,-0.128,-0,0,-0.128,-0,-0.256,0.8048
0.112,0.184,1.5556,0.064,0.104,1.6,0,0.04,0,0,0.04,0,0,0.04,0,0,0.04,0,0.432,0.3008
0.096,0.16,1.5,0.048,0.072,2,0,0.024,0,0,0.024,0,0,0.024,0,0,0.024,0,0.3312,0.248
0,-0.32,-0,0,-0.32,-0,0,-0.32,-0,0,-0.32,-0,0,-0.32,-0,0,-0.32,-0,0.32,0.256
0,-0.448,-0,0,-0.448,-0,0,-0.448,-0,0,-0.448,-0,0,-0.448,-0,0,-0.448,-0,-0.1504,0.536
0.104,-0.288,-0.26531,0.056,-0.336,-0.14286,0,-0.392,-0,0,-0.392,-0,0,-0.392,-0,0,-0.392,-0,-0.2784,0.9648
0.072,0.12,1.5,0,0.048,0,0,0.048,0,0,0.048,0,0,0.048,0,0,0.048,0,0.4144,0.296
0.064,0.016,-1.3333,0,-0.048,-0,0,-0.048,-0,0,-0.048,-0,0,-0.048,-0,0,-0.048,-0,-0.2464,0.816
0,-0.048,-0,0,-0.048,-0,0,-0.048,-0,0,-0.048,-0,0,-0.048,-0,0,-0.048,-0,0.288,0.28
0.104,-0.272,-0.2766,0.056,-0.32,-0.14894,0,-0.376,-0,0,-0.376,-0,0,-0.376,-0,0,-0.376,-0,-0.1792,0.768
0.104,0.184,1.3,0.056,0.088,1.75,0,0.032,0,0,0.032,0,0,0.032,0,0,0.032,0,0.4672,0.2736
0.08,-0.52,-0.13333,0.032,-0.568,-0.053333,0,-0.6,-0,0,-0.6,-0,0,-0.6,-0,0,-0.6,-0,-0.184,0.5536
0.36,-0.144,-0.71429,0,-0.504,-0,0,-0.504,-0,0,-0.504,-0,0,-0.504,-0,0,-0.504,-0,-0.1296,0.5168
0,-0.544,-0,0,-0.544,-0,0,-0.544,-0,0,-0.544,-0,0,-0.544,-0,0,-0.544,-0,-0.1776,0.5696
0,-0.544,-0,0,-0.544,-0,0,-0.544,-0,0,-0.544,-0,0,-0.544,-0,0,-0.544,-0,-0.1216,0.5024
0.136,0.256,1.1333,0.096,0.176,1.2,0.08,0.144,1.25,0,0.064,0,0,0.064,0,0,0.064,0,0.2016,0.1888
0,0.328,0,0,0.328,0,0,0.328,0,0,0.328,0,0,0.328,0,0,0.328,0,0.3168,0.1872
0.088,0.152,1.375,0.032,0.056,1.3333,0,0.024,0,0,0.024,0,0,0.024,0,0,0.024,0,0.3584,0.184
0.096,-0.336,-0.22222,0.04,-0.392,-0.092593,0,-0.432,-0,0,-0.432,-0,0,-0.432,-0,0,-0.432,-0,-0.2784,1.0384
0.096,-0.304,-0.24,0.048,-0.352,-0.12,0,-0.4,-0,0,-0.4,-0,0,-0.4,-0,0,-0.4,-0,-0.2768,0.9984
0.104,-0.328,-0.24074,0.064,-0.368,-0.14815,0.016,-0.416,-0.037037,0,-0.432,-0,0,-0.432,-0,0,-0.432,-0,-0.296,0.9808
0.104,0.184,1.3,0.064,0.112,1.3333,0.032,0.056,1.3333,0,0.024,0,0,0.024,0,0,0.024,0,0.3888,0.288
0.088,-0.432,-0.16923,0.048,-0.472,-0.092308,0,-0.52,-0,0,-0.52,-0,0,-0.52,-0,0,-0.52,-0,-0.1856,0.5504
0.08,-0.424,-0.15873,0,-0.504,-0,0,-0.504,-0,0,-0.504,-0,0,-0.504,-0,0,-0.504,-0,-0.1968,0.5616
0.096,-0.072,-0.57143,0.048,-0.12,-0.28571,0,-0.168,-0,0,-0.168,-0,0,-0.168,-0,0,-0.168,-0,-0.24,0.8336
0.072,0.12,1.5,0,0.048,0,0,0.048,0,0,0.048,0,0,0.048,0,0,0.048,0,0.2272,0.24
0.12,-0.112,-0.51724,0.072,-0.16,-0.31034,0.04,-0.192,-0.17241,0,-0.232,-0,0,-0.232,-0,0,-0.232,-0,-0.2944,1.0048
0.112,0.192,1.4,0.056,0.096,1.4,0,0.04,0,0,0.04,0,0,0.04,0,0,0.04,0,0.3696,0.3376
0.096,-0.296,-0.2449,0.04,-0.352,-0.10204,0,-0.392,-0,0,-0.392,-0,0,-0.392,-0,0,-0.392,-0,-0.3104,1.0352
0.112,-0.288,-0.28,0.064,-0.336,-0.16,0.024,-0.376,-0.06,0,-0.4,-0,0,-0.4,-0,0,-0.4,-0,-0.3152,1.0336
0.112,-0.344,-0.24561,0.064,-0.392,-0.14035,0,-0.456,-0,0,-0.456,-0,0,-0.456,-0,0,-0.456,-0,-0.3072,1.0416
0.104,-0.296,-0.26,0.056,-0.344,-0.14,0,-0.4,-0,0,-0.4,-0,0,-0.4,-0,0,-0.4,-0,-0.2976,1.0352
0.112,0.184,1.5556,0.048,0.08,1.5,0,0.032,0,0,0.032,0,0,0.032,0,0,0.032,0,0.4528,0.3216
0.112,0.192,1.4,0.056,0.104,1.1667,0,0.048,0,0,0.048,0,0,0.048,0,0,0.048,0,0.4208,0.3104
0.104,0.176,1.4444,0.056,0.088,1.75,0,0.032,0,0,0.032,0,0,0.032,0,0,0.032,0,0.4224,0.3056
0,-0.008,-0,0,-0.008,-0,0,-0.008,-0,0,-0.008,-0,0,-0.008,-0,0,-0.008,-0,0.2192,0.1344
0,-0.016,-0,0,-0.016,-0,0,-0.016,-0,0,-0.016,-0,0,-0.016,-0,0,-0.016,-0,0.352,0.2368
0.112,-0.312,-0.26415,0.056,-0.368,-0.13208,0.008,-0.416,-0.018868,0,-0.424,-0,0,-0.424,-0,0,-0.424,-0,-0.296,1.0128
0.112,-0.032,-0.77778,0.064,-0.08,-0.44444,0.032,-0.112,-0.22222,0,-0.144,-0,0,-0.144,-0,0,-0.144,-0,-0.2944,1.0128
0.112,0.072,-2.8,0.064,0.024,-1.6,0.032,-0.008,-0.8,0,-0.04,-0,0,-0.04,-0,0,-0.04,-0,-0.2928,0.9968
0.104,-0.232,-0.30952,0.048,-0.288,-0.14286,0,-0.336,-0,0,-0.336,-0,0,-0.336,-0,0,-0.336,-0,-0.2176,0.6768
0.36,0,-1,0.336,-0.024,-0.93333,0,-0.36,-0,0,-0.36,-0,0,-0.36,-0,0,-0.36,-0,-0.1296,0.4848
0.096,-0.352,-0.21429,0.048,-0.4,-0.10714,0,-0.448,-0,0,-0.448,-0,0,-0.448,-0,0,-0.448,-0,-0.2752,0.9648
0.096,0.168,1.3333,0.04,0.072,1.25,0,0.032,0,0,0.032,0,0,0.032,0,0,0.032,0,0.3872,0.2944
0.104,0.184,1.3,0.056,0.104,1.1667,0.024,0.04,1.5,0,0.016,0,0,0.016,0,0,0.016,0,0.3264,0.2368
0.104,-0.16,-0.39394,0.056,-0.208,-0.21212,0.016,-0.248,-0.060606,0,-0.264,-0,0,-0.264,-0,0,-0.264,-0,-0.2192,0.76
0.096,-0.28,-0.25532,0.048,-0.328,-0.12766,0,-0.376,-0,0,-0.376,-0,0,-0.376,-0,0,-0.376,-0,-0.2832,0.9664
0.104,0.176,1.4444,0.064,0.104,1.6,0.032,0.048,2,0,0.016,0,0,0.016,0,0,0.016,0,0.4032,0.2768
0,0.04,0,0,0.04,0,0,0.04,0,0,0.04,0,0,0.04,0,0,0.04,0,0.376,0.2672
0.048,-0.2,-0.19355,0,-0.248,-0,0,-0.248,-0,0,-0.248,-0,0,-0.248,-0,0,-0.248,-0,-0.2352,0.7408
0.104,0.176,1.4444,0.064,0.112,1.3333,0.032,0.048,2,0,0.016,0,0,0.016,0,0,0.016,0,0.296,0.3104
0.104,0.168,1.625,0.056,0.088,1.75,0,0.032,0,0,0.032,0,0,0.032,0,0,0.032,0,0.3136,0.2832
0.096,0.168,1.3333,0.056,0.096,1.4,0.008,0.008,Inf,0,0,NaN,0,0,NaN,0,0,NaN,0.3072,0.2768
0,-0.056,-0,0,-0.056,-0,0,-0.056,-0,0,-0.056,-0,0,-0.056,-0,0,-0.056,-0,0.2144,0.384
0.104,0.216,0.92857,0.064,0.112,1.3333,0,0.048,0,0,0.048,0,0,0.048,0,0,0.048,0,0.2496,0.2976
0,-0.384,-0,0,-0.384,-0,0,-0.384,-0,0,-0.384,-0,0,-0.384,-0,0,-0.384,-0,-0.2,0.6496
0.08,-0.28,-0.22222,0.032,-0.328,-0.088889,0,-0.36,-0,0,-0.36,-0,0,-0.36,-0,0,-0.36,-0,-0.2144,0.6912
0.096,0.176,1.2,0.056,0.104,1.1667,0.032,0.056,1.3333,0,0.024,0,0,0.024,0,0,0.024,0,0.3296,0.2736
0.088,-0.128,-0.40741,0.04,-0.176,-0.18519,0,-0.216,-0,0,-0.216,-0,0,-0.216,-0,0,-0.216,-0,-0.2592,0.848
0.08,0.144,1.25,0.04,0.064,1.6667,0,0.024,0,0,0.024,0,0,0.024,0,0,0.024,0,0.3376,0.2576
0.112,-0.136,-0.45161,0.072,-0.176,-0.29032,0.04,-0.208,-0.16129,0,-0.248,-0,0,-0.248,-0,0,-0.248,-0,-0.2656,0.8656
0.056,-0.432,-0.11475,0,-0.488,-0,0,-0.488,-0,0,-0.488,-0,0,-0.488,-0,0,-0.488,-0,-0.2144,0.6896
0.216,-0.056,-0.79412,0.088,-0.184,-0.32353,0,-0.272,-0,0,-0.272,-0,0,-0.272,-0,0,-0.272,-0,-0.2688,0.848
0.064,0.112,1.3333,0,0.048,0,0,0.048,0,0,0.048,0,0,0.048,0,0,0.048,0,0.3392,0.2496
0.096,-0.024,-0.8,0.056,-0.064,-0.46667,0.024,-0.096,-0.2,0,-0.12,-0,0,-0.12,-0,0,-0.12,-0,-0.2512,0.8384
0.056,0.096,1.4,0,0.04,0,0,0.04,0,0,0.04,0,0,0.04,0,0,0.04,0,0.336,0.2592
0.088,0.168,1.1,0.048,0.088,1.2,0,0.04,0,0,0.04,0,0,0.04,0,0,0.04,0,0.3312,0.264
0.048,0.096,1,0,0.048,0,0,0.048,0,0,0.048,0,0,0.048,0,0,0.048,0,0.3248,0.272
0.088,-0.136,-0.39286,0.048,-0.176,-0.21429,0,-0.224,-0,0,-0.224,-0,0,-0.224,-0,0,-0.224,-0,-0.2048,0.6784
0.08,0.144,1.25,0.04,0.064,1.6667,0,0.024,0,0,0.024,0,0,0.024,0,0,0.024,0,0.3456,0.2544
0.104,-0.408,-0.20312,0.056,-0.456,-0.10938,0,-0.512,-0,0,-0.512,-0,0,-0.512,-0,0,-0.512,-0,-0.248,0.7904
0.136,-0.248,-0.35417,0.088,-0.296,-0.22917,0.056,-0.328,-0.14583,0,-0.384,-0,0,-0.384,-0,0,-0.384,-0,-0.2288,0.6496
0.112,0.208,1.1667,0.064,0.12,1.1429,0.04,0.072,1.25,0,0.032,0,0,0.032,0,0,0.032,0,0.3328,0.192
0.096,-0.192,-0.33333,0.056,-0.232,-0.19444,0.016,-0.272,-0.055556,0,-0.288,-0,0,-0.288,-0,0,-0.288,-0,-0.28,0.8848
0.104,0.176,1.4444,0.064,0.112,1.3333,0.032,0.056,1.3333,0,0.024,0,0,0.024,0,0,0.024,0,0.32,0.2896
0.104,0.168,1.625,0.056,0.096,1.4,0,0.04,0,0,0.04,0,0,0.04,0,0,0.04,0,0.2736,0.3136
0.088,0.152,1.375,0.024,0.04,1.5,0,0.016,0,0,0.016,0,0,0.016,0,0,0.016,0,0.288,0.3104
0.12,0.024,-1.25,0.072,-0.024,-0.75,0.032,-0.064,-0.33333,0,-0.096,-0,0,-0.096,-0,0,-0.096,-0,-0.3152,0.9264
0.08,0.136,1.4286,0.024,0.04,1.5,0,0.016,0,0,0.016,0,0,0.016,0,0,0.016,0,0.3008,0.2976
0.096,-0.072,-0.57143,0.056,-0.112,-0.33333,0.016,-0.152,-0.095238,0,-0.168,-0,0,-0.168,-0,0,-0.168,-0,-0.2064,0.6832
0.096,0.16,1.5,0.056,0.088,1.75,0,0.032,0,0,0.032,0,0,0.032,0,0,0.032,0,0.3056,0.2896
0.096,-0.24,-0.28571,0.04,-0.296,-0.11905,0,-0.336,-0,0,-0.336,-0,0,-0.336,-0,0,-0.336,-0,-0.3024,0.9168
0.112,0.192,1.4,0.056,0.104,1.1667,0.016,0.032,1,0,0.016,0,0,0.016,0,0,0.016,0,0.328,0.2928
0.112,0.192,1.4,0.064,0.112,1.3333,0.024,0.04,1.5,0,0.016,0,0,0.016,0,0,0.016,0,0.336,0.296
0.096,0.16,1.5,0.04,0.064,1.6667,0,0.024,0,0,0.024,0,0,0.024,0,0,0.024,0,0.336,0.2848
0.112,0.184,1.5556,0.064,0.104,1.6,0.016,0.016,Inf,0,0,NaN,0,0,NaN,0,0,NaN,0.3344,0.3024
0.104,-0.176,-0.37143,0.056,-0.224,-0.2,0.024,-0.256,-0.085714,0,-0.28,-0,0,-0.28,-0,0,-0.28,-0,-0.2816,0.9168
0.096,-0.032,-0.75,0.048,-0.08,-0.375,0,-0.128,-0,0,-0.128,-0,0,-0.128,-0,0,-0.128,-0,-0.272,0.9136
0.056,0.088,1.75,0,0.032,0,0,0.032,0,0,0.032,0,0,0.032,0,0,0.032,0,0.3696,0.304
0.096,0.168,1.3333,0.056,0.096,1.4,0.016,0.024,2,0,0.008,0,0,0.008,0,0,0.008,0,0.4112,0.2784
0.112,-0.08,-0.58333,0.064,-0.128,-0.33333,0.04,-0.152,-0.20833,0,-0.192,-0,0,-0.192,-0,0,-0.192,-0,-0.2704,0.9312
0.104,-0.288,-0.26531,0.048,-0.344,-0.12245,0,-0.392,-0,0,-0.392,-0,0,-0.392,-0,0,-0.392,-0,-0.1968,0.632
0.088,0.16,1.2222,0.04,0.064,1.6667,0,0.024,0,0,0.024,0,0,0.024,0,0,0.024,0,0.2224,0.1664
0.104,0.184,1.3,0.064,0.104,1.6,0.024,0.04,1.5,0,0.016,0,0,0.016,0,0,0.016,0,0.3776,0.272
0.096,-0.152,-0.3871,0.056,-0.192,-0.22581,0,-0.248,-0,0,-0.248,-0,0,-0.248,-0,0,-0.248,-0,-0.2208,0.7488
0.088,-0.328,-0.21154,0.04,-0.376,-0.096154,0,-0.416,-0,0,-0.416,-0,0,-0.416,-0,0,-0.416,-0,-0.168,0.4752
0.328,-0.008,-0.97619,0,-0.336,-0,0,-0.336,-0,0,-0.336,-0,0,-0.336,-0,0,-0.336,-0,-0.216,0.7488
0.36,-0.136,-0.72581,0.336,-0.16,-0.67742,0,-0.496,-0,0,-0.496,-0,0,-0.496,-0,0,-0.496,-0,-0.1344,0.4768
0,-0.24,-0,0,-0.24,-0,0,-0.24,-0,0,-0.24,-0,0,-0.24,-0,0,-0.24,-0,0.16,0.1312
0,-0.208,-0,0,-0.208,-0,0,-0.208,-0,0,-0.208,-0,0,-0.208,-0,0,-0.208,-0,0.192,0.1232
0.136,0.24,1.3077,0.096,0.16,1.5,0.072,0.12,1.5,0,0.048,0,0,0.048,0,0,0.048,0,0.1632,0.1648
-0.032,0.112,-0.22222,0.176,0.32,1.2222,0.144,0.24,1.5,0.088,0.136,1.8333,0,0.048,0,0,0.048,0,0.1536,0.1728
0.416,0.256,-2.6,0.368,0.208,-2.3,0,-0.16,-0,0,-0.16,-0,0,-0.16,-0,0,-0.16,-0,-0.136,0.464
0.112,0.064,-2.3333,0.064,0.016,-1.3333,0.032,-0.016,-0.66667,0,-0.048,-0,0,-0.048,-0,0,-0.048,-0,-0.272,0.8944
0.176,0.104,-2.4444,0.12,0.048,-1.6667,0.088,0.016,-1.2222,0,-0.072,-0,0,-0.072,-0,0,-0.072,-0,-0.1792,0.4784
0.048,-0.064,-0.42857,0,-0.112,-0,0,-0.112,-0,0,-0.112,-0,0,-0.112,-0,0,-0.112,-0,-0.168,0.4672
0.056,-0.016,-0.77778,0,-0.072,-0,0,-0.072,-0,0,-0.072,-0,0,-0.072,-0,0,-0.072,-0,-0.1728,0.4784
0,0.096,0,0,0.096,0,0,0.096,0,0,0.096,0,0,0.096,0,0,0.096,0,0.1824,0.1248
0.096,0.16,1.5,0.048,0.08,1.5,0,0.032,0,0,0.032,0,0,0.032,0,0,0.032,0,0.2944,0.2288
0,-0.344,-0,0,-0.344,-0,0,-0.344,-0,0,-0.344,-0,0,-0.344,-0,0,-0.344,-0,-0.1424,0.488
0,-0.216,-0,0,-0.216,-0,0,-0.216,-0,0,-0.216,-0,0,-0.216,-0,0,-0.216,-0,0.1728,0.1312
0.12,-0.28,-0.3,0.064,-0.336,-0.16,0.032,-0.368,-0.08,0,-0.4,-0,0,-0.4,-0,0,-0.4,-0,-0.176,0.4592
0.112,0.192,1.4,0.064,0.112,1.3333,0.032,0.056,1.3333,0,0.024,0,0,0.024,0,0,0.024,0,0.3904,0.2784
0.072,-0.328,-0.18,0,-0.4,-0,0,-0.4,-0,0,-0.4,-0,0,-0.4,-0,0,-0.4,-0,-0.1888,0.5104
0,-0.472,-0,0,-0.472,-0,0,-0.472,-0,0,-0.472,-0,0,-0.472,-0,0,-0.472,-0,-0.1936,0.5312
0,-0.2,-0,0,-0.2,-0,0,-0.2,-0,0,-0.2,-0,0,-0.2,-0,0,-0.2,-0,0.1664,0.1664
0.056,-0.408,-0.12069,0,-0.464,-0,0,-0.464,-0,0,-0.464,-0,0,-0.464,-0,0,-0.464,-0,-0.208,0.5552
0.144,-0.264,-0.35294,0.096,-0.312,-0.23529,0.064,-0.344,-0.15686,0,-0.408,-0,0,-0.408,-0,0,-0.408,-0,-0.2032,0.5536
0.168,-0.28,-0.375,0.112,-0.336,-0.25,0.088,-0.36,-0.19643,0,-0.448,-0,0,-0.448,-0,0,-0.448,-0,-0.2256,0.5968
0.112,-0.368,-0.23333,0.064,-0.416,-0.13333,0.032,-0.448,-0.066667,0,-0.48,-0,0,-0.48,-0,0,-0.48,-0,-0.1984,0.536
0.152,-0.288,-0.34545,0.104,-0.336,-0.23636,0.08,-0.36,-0.18182,0,-0.44,-0,0,-0.44,-0,0,-0.44,-0,-0.2032,0.5408
0.464,-0.032,-0.93548,0.08,-0.416,-0.16129,0,-0.496,-0,0,-0.496,-0,0,-0.496,-0,0,-0.496,-0,-0.1696,0.528
0.472,-0.024,-0.95161,0.064,-0.432,-0.12903,0,-0.496,-0,0,-0.496,-0,0,-0.496,-0,0,-0.496,-0,-0.1728,0.5312
0.152,-0.336,-0.31148,0.104,-0.384,-0.21311,0.08,-0.408,-0.16393,0,-0.488,-0,0,-0.488,-0,0,-0.488,-0,-0.1984,0.5392
0.04,0.056,2.5,0,0.016,0,0,0.016,0,0,0.016,0,0,0.016,0,0,0.016,0,0.1728,0.176
0.352,0.016,-1.0476,0.352,0.016,-1.0476,0.464,0.128,-1.381,0,-0.336,-0,0,-0.336,-0,0,-0.336,-0,-0.1744,0.528
0.168,-0.24,-0.41176,0.112,-0.296,-0.27451,0.08,-0.328,-0.19608,0,-0.408,-0,0,-0.408,-0,0,-0.408,-0,-0.168,0.4496
0.112,-0.184,-0.37838,0.064,-0.232,-0.21622,0.032,-0.264,-0.10811,0,-0.296,-0,0,-0.296,-0,0,-0.296,-0,-0.1792,0.4768
0.096,-0.312,-0.23529,0.056,-0.352,-0.13725,0.016,-0.392,-0.039216,0,-0.408,-0,0,-0.408,-0,0,-0.408,-0,-0.1776,0.488
0,-0.112,-0,0,-0.112,-0,0,-0.112,-0,0,-0.112,-0,0,-0.112,-0,0,-0.112,-0,0.1536,0.1568
0.072,0.128,1.2857,0,0.056,0,0,0.056,0,0,0.056,0,0,0.056,0,0,0.056,0,0.16,0.1584
0.104,0.176,1.4444,0.056,0.096,1.4,0.008,0.016,1,0,0.008,0,0,0.008,0,0,0.008,0,0.3232,0.2288
0.144,0.248,1.3846,0.104,0.176,1.4444,0.08,0.136,1.4286,0.024,0.04,1.5,0,0.016,0,0,0.016,0,0.1536,0.1808
0,-0.008,-0,0,-0.008,-0,0,-0.008,-0,0,-0.008,-0,0,-0.008,-0,0,-0.008,-0,-0.1296,0.4768
0.064,-0.008,-0.88889,0.128,0.056,-1.7778,0.104,0.032,-1.4444,0.016,-0.056,-0.22222,0,-0.072,-0,0,-0.072,-0,-0.1952,0.5088
0.128,0.136,16,0.072,0.08,9,0.024,0.032,3,0,0.008,0,0,0.008,0,0,0.008,0,-0.1984,0.5104
0.12,0.128,15,0.08,0.088,10,0.048,0.056,6,0,0.008,0,0,0.008,0,0,0.008,0,-0.1888,0.5136
0.176,0.312,1.2941,0.128,0.208,1.6,0.104,0.168,1.625,0.048,0.072,2,0,0.024,0,0,0.024,0,0.1456,0.1968
0.08,-0.144,-0.35714,0.04,-0.184,-0.17857,0,-0.224,-0,0,-0.224,-0,0,-0.224,-0,0,-0.224,-0,-0.192,0.5264
0,-0.048,-0,0,-0.048,-0,0,-0.048,-0,0,-0.048,-0,0,-0.048,-0,0,-0.048,-0,0.1792,0.1504
0,-0.16,-0,0,-0.16,-0,0,-0.16,-0,0,-0.16,-0,0,-0.16,-0,0,-0.16,-0,-0.1664,0.5216
0.224,0.376,1.4737,0.144,0.24,1.5,0.12,0.2,1.5,0.056,0.096,1.4,0,0.04,0,0,0.04,0,0.1568,0.2032
0.192,0.032,-1.2,0.12,-0.04,-0.75,0.096,-0.064,-0.6,0.016,-0.144,-0.1,0,-0.16,-0,0,-0.16,-0,-0.1856,0.4976
-0.088,-0.16,1.2222,0.424,0.352,-5.8889,0,-0.072,-0,0,-0.072,-0,0,-0.072,-0,0,-0.072,-0,-0.1456,0.4816
0,-0.144,-0,0,-0.144,-0,0,-0.144,-0,0,-0.144,-0,0,-0.144,-0,0,-0.144,-0,-0.16,0.5152
0,-0.096,-0,0,-0.096,-0,0,-0.096,-0,0,-0.096,-0,0,-0.096,-0,0,-0.096,-0,-0.1632,0.5088
0,0.016,0,0,0.016,0,0,0.016,0,0,0.016,0,0,0.016,0,0,0.016,0,0.1536,0.1632
0.096,0.152,1.7143,0.048,0.08,1.5,0.016,0.024,2,0,0.008,0,0,0.008,0,0,0.008,0,0.1488,0.192
0.12,0.192,1.6667,0.08,0.136,1.4286,0.056,0.088,1.75,0,0.032,0,0,0.032,0,0,0.032,0,0.1504,0.192
0.12,0.192,1.6667,0.08,0.128,1.6667,0.056,0.088,1.75,0,0.032,0,0,0.032,0,0,0.032,0,0.16,0.1888
0.08,0.008,-1.1111,0.04,-0.032,-0.55556,0,-0.072,-0,0,-0.072,-0,0,-0.072,-0,0,-0.072,-0,-0.1888,0.5152
0,-0.176,-0,0,-0.176,-0,0,-0.176,-0,0,-0.176,-0,0,-0.176,-0,0,-0.176,-0,-0.1648,0.5136
0,-0.072,-0,0,-0.072,-0,0,-0.072,-0,0,-0.072,-0,0,-0.072,-0,0,-0.072,-0,-0.1664,0.512
0,-0.144,-0,0,-0.144,-0,0,-0.144,-0,0,-0.144,-0,0,-0.144,-0,0,-0.144,-0,-0.1392,0.4848
0.168,0.288,1.4,0.12,0.2,1.5,0.096,0.16,1.5,0.008,0.016,1,0,0.008,0,0,0.008,0,0.1296,0.1808
0,0.08,0,0,0.08,0,0,0.08,0,0,0.08,0,0,0.08,0,0,0.08,0,0.1392,0.1792
0.104,0.168,1.625,0.064,0.104,1.6,0.032,0.048,2,0,0.016,0,0,0.016,0,0,0.016,0,0.1504,0.1856
0,-0.184,-0,0,-0.184,-0,0,-0.184,-0,0,-0.184,-0,0,-0.184,-0,0,-0.184,-0,-0.176,0.5168
-0.104,-0.184,1.3,0.032,-0.048,-0.4,0,-0.08,-0,0,-0.08,-0,0,-0.08,-0,0,-0.08,-0,-0.1824,0.5264
0,-0.016,-0,0,-0.016,-0,0,-0.016,-0,0,-0.016,-0,0,-0.016,-0,0,-0.016,-0,0.1248,0.1904
-0.096,0.016,-0.85714,0.144,0.216,2,0.112,0.168,2,0.04,0.064,1.6667,0,0.024,0,0,0.024,0,0.1328,0.1952
0.184,0.04,-1.2778,0.128,-0.016,-0.88889,0.096,-0.048,-0.66667,0.024,-0.12,-0.16667,0,-0.144,-0,0,-0.144,-0,-0.1968,0.504
0,-0.152,-0,0,-0.152,-0,0,-0.152,-0,0,-0.152,-0,0,-0.152,-0,0,-0.152,-0,-0.1648,0.4704
0.128,0.2,1.7778,0.08,0.136,1.4286,0.056,0.096,1.4,0,0.04,0,0,0.04,0,0,0.04,0,0.1184,0.1664
0,0.16,0,0,0.16,0,0,0.16,0,0,0.16,0,0,0.16,0,0,0.16,0,0.1488,0.1264
0,-0.104,-0,0,-0.104,-0,0,-0.104,-0,0,-0.104,-0,0,-0.104,-0,0,-0.104,-0,-0.1632,0.536
0,-0.016,-0,0,-0.016,-0,0,-0.016,-0,0,-0.016,-0,0,-0.016,-0,0,-0.016,-0,-0.1472,0.4704
0.096,0.168,1.3333,0.056,0.104,1.1667,0.024,0.048,1,0,0.024,0,0,0.024,0,0,0.024,0,0.1632,0.2
0.496,0.424,-6.8889,0,-0.072,-0,0,-0.072,-0,0,-0.072,-0,0,-0.072,-0,0,-0.072,-0,-0.1888,0.5536
0.072,0.12,1.5,0,0.048,0,0,0.048,0,0,0.048,0,0,0.048,0,0,0.048,0,0.1344,0.1824
0,-0.208,-0,0,-0.208,-0,0,-0.208,-0,0,-0.208,-0,0,-0.208,-0,0,-0.208,-0,-0.16,0.5008
0.112,-0.136,-0.45161,0,-0.248,-0,0,-0.248,-0,0,-0.248,-0,0,-0.248,-0,0,-0.248,-0,-0.1776,0.5136
0.064,-0.08,-0.44444,0,-0.144,-0,0,-0.144,-0,0,-0.144,-0,0,-0.144,-0,0,-0.144,-0,-0.1408,0.4016
0,0.08,0,0,0.08,0,0,0.08,0,0,0.08,0,0,0.08,0,0,0.08,0,0.1648,0.1456
0,-0.064,-0,0,-0.064,-0,0,-0.064,-0,0,-0.064,-0,0,-0.064,-0,0,-0.064,-0,0.2192,0.1728
0.072,-0.224,-0.24324,0,-0.296,-0,0,-0.296,-0,0,-0.296,-0,0,-0.296,-0,0,-0.296,-0,-0.1616,0.4688
0,-0.296,-0,0,-0.296,-0,0,-0.296,-0,0,-0.296,-0,0,-0.296,-0,0,-0.296,-0,-0.16,0.4944
0,-0.232,-0,0,-0.232,-0,0,-0.232,-0,0,-0.232,-0,0,-0.232,-0,0,-0.232,-0,-0.1184,0.4384
0,-0.144,-0,0,-0.144,-0,0,-0.144,-0,0,-0.144,-0,0,-0.144,-0,0,-0.144,-0,0.1376,0.1392
0.096,0.024,-1.3333,0.048,-0.024,-0.66667,0,-0.072,-0,0,-0.072,-0,0,-0.072,-0,0,-0.072,-0,-0.2192,0.7232
0,-0.112,-0,0,-0.112,-0,0,-0.112,-0,0,-0.112,-0,0,-0.112,-0,0,-0.112,-0,0.216,0.168
0.096,0.064,-3,0.04,0.008,-1.25,0,-0.032,-0,0,-0.032,-0,0,-0.032,-0,0,-0.032,-0,-0.176,0.4832
0,-0.024,-0,0,-0.024,-0,0,-0.024,-0,0,-0.024,-0,0,-0.024,-0,0,-0.024,-0,0.1824,0.1152
0.096,0.168,1.3333,0.048,0.088,1.2,0,0.04,0,0,0.04,0,0,0.04,0,0,0.04,0,0.2304,0.1728
0.088,-0.32,-0.21569,0.04,-0.368,-0.098039,0,-0.408,-0,0,-0.408,-0,0,-0.408,-0,0,-0.408,-0,-0.1632,0.5536
0,-0.136,-0,0,-0.136,-0,0,-0.136,-0,0,-0.136,-0,0,-0.136,-0,0,-0.136,-0,0.1856,0.1216
0,-0.128,-0,0,-0.128,-0,0,-0.128,-0,0,-0.128,-0,0,-0.128,-0,0,-0.128,-0,0.1696,0.1328
0.104,-0.312,-0.25,0.064,-0.352,-0.15385,0.032,-0.384,-0.076923,0,-0.416,-0,0,-0.416,-0,0,-0.416,-0,-0.1728,0.4768
0.112,-0.24,-0.31818,0.064,-0.288,-0.18182,0.032,-0.32,-0.090909,0,-0.352,-0,0,-0.352,-0,0,-0.352,-0,-0.176,0.4768
0.032,-0.296,-0.097561,0,-0.328,-0,0,-0.328,-0,0,-0.328,-0,0,-0.328,-0,0,-0.328,-0,-0.1504,0.504
0,-0.176,-0,0,-0.176,-0,0,-0.176,-0,0,-0.176,-0,0,-0.176,-0,0,-0.176,-0,0.1536,0.16
0,-0.256,-0,0,-0.256,-0,0,-0.256,-0,0,-0.256,-0,0,-0.256,-0,0,-0.256,-0,0.1632,0.1456
0,-0.192,-0,0,-0.192,-0,0,-0.192,-0,0,-0.192,-0,0,-0.192,-0,0,-0.192,-0,0.1552,0.1536
0,-0.168,-0,0,-0.168,-0,0,-0.168,-0,0,-0.168,-0,0,-0.168,-0,0,-0.168,-0,0.16,0.1408
0,-0.112,-0,0,-0.112,-0,0,-0.112,-0,0,-0.112,-0,0,-0.112,-0,0,-0.112,-0,0.1568,0.1472
0.096,-0.288,-0.25,0.048,-0.336,-0.125,0,-0.384,-0,0,-0.384,-0,0,-0.384,-0,0,-0.384,-0,-0.1808,0.4944
0.4,0.144,-1.5625,0,-0.256,-0,0,-0.256,-0,0,-0.256,-0,0,-0.256,-0,0,-0.256,-0,-0.1456,0.4944
0,-0.424,-0,0,-0.424,-0,0,-0.424,-0,0,-0.424,-0,0,-0.424,-0,0,-0.424,-0,-0.1376,0.4832
0.376,0.088,-1.3056,0,-0.288,-0,0,-0.288,-0,0,-0.288,-0,0,-0.288,-0,0,-0.288,-0,-0.128,0.4832
0.096,-0.272,-0.26087,0.048,-0.32,-0.13043,0,-0.368,-0,0,-0.368,-0,0,-0.368,-0,0,-0.368,-0,-0.1744,0.488
0,0.032,0,0,0.032,0,0,0.032,0,0,0.032,0,0,0.032,0,0,0.032,0,0.1936,0.1344
0.096,-0.312,-0.23529,0.048,-0.36,-0.11765,0,-0.408,-0,0,-0.408,-0,0,-0.408,-0,0,-0.408,-0,-0.184,0.5152
0,-0.376,-0,0,-0.376,-0,0,-0.376,-0,0,-0.376,-0,0,-0.376,-0,0,-0.376,-0,-0.1408,0.5088
0,-0.184,-0,0,-0.184,-0,0,-0.184,-0,0,-0.184,-0,0,-0.184,-0,0,-0.184,-0,0.1872,0.1472
0,-0.432,-0,0,-0.432,-0,0,-0.432,-0,0,-0.432,-0,0,-0.432,-0,0,-0.432,-0,-0.1632,0.5216
0.024,-0.408,-0.055556,0,-0.432,-0,0,-0.432,-0,0,-0.432,-0,0,-0.432,-0,0,-0.432,-0,-0.192,0.6
0,-0.352,-0,0,-0.352,-0,0,-0.352,-0,0,-0.352,-0,0,-0.352,-0,0,-0.352,-0,-0.1952,0.6016
0.136,-0.296,-0.31481,0.064,-0.368,-0.14815,0,-0.432,-0,0,-0.432,-0,0,-0.432,-0,0,-0.432,-0,-0.2112,0.5456
0,-0.232,-0,0,-0.232,-0,0,-0.232,-0,0,-0.232,-0,0,-0.232,-0,0,-0.232,-0,0.1456,0.1648
0.112,0.184,1.5556,0.056,0.096,1.4,0.016,0.024,2,0,0.008,0,0,0.008,0,0,0.008,0,0.136,0.1984
0,-0.176,-0,0,-0.176,-0,0,-0.176,-0,0,-0.176,-0,0,-0.176,-0,0,-0.176,-0,-0.192,0.528
-0.008,-0.176,0.047619,0.2,0.032,-1.1905,0.152,-0.016,-0.90476,0.072,-0.096,-0.42857,0,-0.168,-0,0,-0.168,-0,-0.1968,0.504
0,-0.24,-0,0,-0.24,-0,0,-0.24,-0,0,-0.24,-0,0,-0.24,-0,0,-0.24,-0,-0.1856,0.512
0.12,0.192,1.6667,0.072,0.112,1.8,0.04,0.056,2.5,0,0.016,0,0,0.016,0,0,0.016,0,0.1408,0.1888
0,0.136,0,0,0.136,0,0,0.136,0,0,0.136,0,0,0.136,0,0,0.136,0,0.1408,0.1712
0,0.032,0,0,0.032,0,0,0.032,0,0,0.032,0,0,0.032,0,0,0.032,0,0.144,0.1696
0.104,0.152,2.1667,0.04,0.056,2.5,0,0.016,0,0,0.016,0,0,0.016,0,0,0.016,0,0.1424,0.1904
0,0.232,0,0,0.232,0,0,0.232,0,0,0.232,0,0,0.232,0,0,0.232,0,0.1456,0.1728
0.128,0.048,-1.6,0.08,0,-1,0.048,-0.032,-0.6,0,-0.08,-0,0,-0.08,-0,0,-0.08,-0,-0.192,0.4976
0.2,0.304,1.9231,0.136,0.208,1.8889,0.104,0.16,1.8571,0.032,0.048,2,0,0.016,0,0,0.016,0,0.1264,0.2
0,-0.04,-0,0,-0.04,-0,0,-0.04,-0,0,-0.04,-0,0,-0.04,-0,0,-0.04,-0,-0.168,0.4848
-0.248,-0.104,-1.7222,0.064,0.104,1.6,0,0.04,0,0,0.04,0,0,0.04,0,0,0.04,0,0.1376,0.1888
0.072,0.112,1.8,0,0.04,0,0,0.04,0,0,0.04,0,0,0.04,0,0,0.04,0,0.1248,0.1872
0.136,0.2,2.125,0.072,0.112,1.8,0.048,0.072,2,0,0.024,0,0,0.024,0,0,0.024,0,0.1104,0.2048
0.112,0.168,2,0.064,0.104,1.6,0.04,0.056,2.5,0,0.016,0,0,0.016,0,0,0.016,0,0.128,0.1872
0,-0.056,-0,0,-0.056,-0,0,-0.056,-0,0,-0.056,-0,0,-0.056,-0,0,-0.056,-0,-0.1712,0.4944
0,0.144,0,0,0.144,0,0,0.144,0,0,0.144,0,0,0.144,0,0,0.144,0,0.1344,0.152
0.128,0.2,1.7778,0.088,0.136,1.8333,0.056,0.088,1.75,0,0.032,0,0,0.032,0,0,0.032,0,0.1312,0.1936
0,0.016,0,0,0.016,0,0,0.016,0,0,0.016,0,0,0.016,0,0,0.016,0,0.1568,0.1504
0.16,0.264,1.5385,0.112,0.184,1.5556,0.088,0.144,1.5714,0.016,0.024,2,0,0.008,0,0,0.008,0,0.1424,0.1984
0.104,0.168,1.625,0.064,0.104,1.6,0.032,0.048,2,0,0.016,0,0,0.016,0,0,0.016,0,0.1344,0.2144
0,0.072,0,0,0.072,0,0,0.072,0,0,0.072,0,0,0.072,0,0,0.072,0,0.1328,0.1856
0.112,0.176,1.75,0.064,0.104,1.6,0.04,0.064,1.6667,0,0.024,0,0,0.024,0,0,0.024,0,0.1312,0.1712
0,-0.112,-0,0,-0.112,-0,0,-0.112,-0,0,-0.112,-0,0,-0.112,-0,0,-0.112,-0,-0.1792,0.52
0,-0.208,-0,0,-0.208,-0,0,-0.208,-0,0,-0.208,-0,0,-0.208,-0,0,-0.208,-0,-0.1824,0.5376
0,-0.008,-0,0,-0.008,-0,0,-0.008,-0,0,-0.008,-0,0,-0.008,-0,0,-0.008,-0,0.1344,0.184
0,0.112,0,0,0.112,0,0,0.112,0,0,0.112,0,0,0.112,0,0,0.112,0,0.1104,0.1504
0,0.064,0,0,0.064,0,0,0.064,0,0,0.064,0,0,0.064,0,0,0.064,0,0.1504,0.1712
0.128,-0.024,-0.84211,0.08,-0.072,-0.52632,0.048,-0.104,-0.31579,0,-0.152,-0,0,-0.152,-0,0,-0.152,-0,-0.1952,0.5136
0.096,0.152,1.7143,0.056,0.088,1.75,0.016,0.024,2,0,0.008,0,0,0.008,0,0,0.008,0,0.1424,0.1936
0,0.128,0,0,0.128,0,0,0.128,0,0,0.128,0,0,0.128,0,0,0.128,0,0.1408,0.1632
0.096,0.16,1.5,0.056,0.096,1.4,0.024,0.04,1.5,0,0.016,0,0,0.016,0,0,0.016,0,0.1424,0.1888
0,-0.08,-0,0,-0.08,-0,0,-0.08,-0,0,-0.08,-0,0,-0.08,-0,0,-0.08,-0,-0.1664,0.5056
0,-0.104,-0,0,-0.104,-0,0,-0.104,-0,0,-0.104,-0,0,-0.104,-0,0,-0.104,-0,-0.168,0.5088
0,0.144,0,0,0.144,0,0,0.144,0,0,0.144,0,0,0.144,0,0,0.144,0,0.1424,0.1728
0,0.048,0,0,0.048,0,0,0.048,0,0,0.048,0,0,0.048,0,0,0.048,0,0.1184,0.168
0.112,0.032,-1.4,0.064,-0.016,-0.8,0.04,-0.04,-0.5,0,-0.08,-0,0,-0.08,-0,0,-0.08,-0,-0.2032,0.5424
0,0.064,0,0,0.064,0,0,0.064,0,0,0.064,0,0,0.064,0,0,0.064,0,0.1328,0.1984
0.112,0.104,-14,0.072,0.064,-9,0.048,0.04,-6,0,-0.008,-0,0,-0.008,-0,0,-0.008,-0,-0.1872,0.4976
0,-0.12,-0,0,-0.12,-0,0,-0.12,-0,0,-0.12,-0,0,-0.12,-0,0,-0.12,-0,-0.1568,0.496
0,-0.08,-0,0,-0.08,-0,0,-0.08,-0,0,-0.08,-0,0,-0.08,-0,0,-0.08,-0,-0.1568,0.4928
0.08,0,-1,0.032,-0.048,-0.4,0,-0.08,-0,0,-0.08,-0,0,-0.08,-0,0,-0.08,-0,-0.1888,0.5184
0,0.136,0,0,0.136,0,0,0.136,0,0,0.136,0,0,0.136,0,0,0.136,0,0.1552,0.1664
0.096,0.152,1.7143,0.048,0.08,1.5,0.016,0.016,Inf,0,0,NaN,0,0,NaN,0,0,NaN,0.1072,0.1536
0,0.096,0,0,0.096,0,0,0.096,0,0,0.096,0,0,0.096,0,0,0.096,0,0.144,0.1824
0.144,-0.016,-0.9,0.096,-0.064,-0.6,0.072,-0.088,-0.45,0,-0.16,-0,0,-0.16,-0,0,-0.16,-0,-0.2016,0.5136
0.08,-0.072,-0.52632,0.032,-0.12,-0.21053,0,-0.152,-0,0,-0.152,-0,0,-0.152,-0,0,-0.152,-0,-0.1936,0.5088
0,0.04,0,0,0.04,0,0,0.04,0,0,0.04,0,0,0.04,0,0,0.04,0,0.1328,0.1824
0,-0.168,-0,0,-0.168,-0,0,-0.168,-0,0,-0.168,-0,0,-0.168,-0,0,-0.168,-0,-0.1856,0.52
-0.032,-0.168,0.23529,0.168,0.032,-1.2353,0.128,-0.008,-0.94118,0.056,-0.08,-0.41176,0,-0.136,-0,0,-0.136,-0,-0.1968,0.5072
0,0.064,0,0,0.064,0,0,0.064,0,0,0.064,0,0,0.064,0,0,0.064,0,0.1536,0.1376
0,0.04,0,0,0.04,0,0,0.04,0,0,0.04,0,0,0.04,0,0,0.04,0,0.1792,0.1664
0,-0.056,-0,0,-0.056,-0,0,-0.056,-0,0,-0.056,-0,0,-0.056,-0,0,-0.056,-0,0.1408,0.136
0.024,0.04,1.5,0,0.016,0,0,0.016,0,0,0.016,0,0,0.016,0,0,0.016,0,0.152,0.144
0.16,0.064,-1.6667,0.104,0.008,-1.0833,0.08,-0.016,-0.83333,0,-0.096,-0,0,-0.096,-0,0,-0.096,-0,-0.1824,0.4704
-0.264,-0.168,-2.75,0,0.096,0,0,0.096,0,0,0.096,0,0,0.096,0,0,0.096,0,0.1504,0.1344
0.36,0.24,-3,0,-0.12,-0,0,-0.12,-0,0,-0.12,-0,0,-0.12,-0,0,-0.12,-0,-0.1408,0.4432
0,0.064,0,0,0.064,0,0,0.064,0,0,0.064,0,0,0.064,0,0,0.064,0,0.1424,0.1488
0,0.024,0,0,0.024,0,0,0.024,0,0,0.024,0,0,0.024,0,0,0.024,0,0.1488,0.1552
0,-0.152,-0,0,-0.152,-0,0,-0.152,-0,0,-0.152,-0,0,-0.152,-0,0,-0.152,-0,-0.1424,0.4368
0.176,0.304,1.375,0.128,0.2,1.7778,0.104,0.168,1.625,0.04,0.064,1.6667,0,0.024,0,0,0.024,0,0.1392,0.1856
0.112,-0.024,-0.82353,0.064,-0.072,-0.47059,0.032,-0.104,-0.23529,0,-0.136,-0,0,-0.136,-0,0,-0.136,-0,-0.1712,0.5376
0,-0.016,-0,0,-0.016,-0,0,-0.016,-0,0,-0.016,-0,0,-0.016,-0,0,-0.016,-0,-0.128,0.456
0,0.136,0,0,0.136,0,0,0.136,0,0,0.136,0,0,0.136,0,0,0.136,0,0.1328,0.1632
0.176,0.136,-4.4,0.176,0.136,-4.4,0.432,0.392,-10.8,0,-0.04,-0,0,-0.04,-0,0,-0.04,-0,-0.1664,0.4864
0.112,0.072,-2.8,0,-0.04,-0,0,-0.04,-0,0,-0.04,-0,0,-0.04,-0,0,-0.04,-0,-0.1632,0.4816
0,-0.08,-0,0,-0.08,-0,0,-0.08,-0,0,-0.08,-0,0,-0.08,-0,0,-0.08,-0,-0.1584,0.496
0,0.016,0,0,0.016,0,0,0.016,0,0,0.016,0,0,0.016,0,0,0.016,0,0.1392,0.1776
0.144,0.216,2,0.096,0.144,2,0.064,0.096,2,0,0.032,0,0,0.032,0,0,0.032,0,0.1376,0.1904
0,0.176,0,0,0.176,0,0,0.176,0,0,0.176,0,0,0.176,0,0,0.176,0,0.136,0.184
0.232,0.176,-4.1429,0,-0.056,-0,0,-0.056,-0,0,-0.056,-0,0,-0.056,-0,0,-0.056,-0,-0.1664,0.4768
0,-0.104,-0,0,-0.104,-0,0,-0.104,-0,0,-0.104,-0,0,-0.104,-0,0,-0.104,-0,-0.144,0.3872
0,0.024,0,0,0.024,0,0,0.024,0,0,0.024,0,0,0.024,0,0,0.024,0,0.144,0.1456
0,-0.096,-0,0,-0.096,-0,0,-0.096,-0,0,-0.096,-0,0,-0.096,-0,0,-0.096,-0,-0.1472,0.4864
0,0.248,0,0,0.248,0,0,0.248,0,0,0.248,0,0,0.248,0,0,0.248,0,0.1664,0.1488
0,-0.096,-0,0,-0.096,-0,0,-0.096,-0,0,-0.096,-0,0,-0.096,-0,0,-0.096,-0,-0.1584,0.4976
0,0.24,0,0,0.24,0,0,0.24,0,0,0.24,0,0,0.24,0,0,0.24,0,0.1648,0.1536
0,-0.152,-0,0,-0.152,-0,0,-0.152,-0,0,-0.152,-0,0,-0.152,-0,0,-0.152,-0,-0.1552,0.496
0,0.168,0,0,0.168,0,0,0.168,0,0,0.168,0,0,0.168,0,0,0.168,0,0.1552,0.1696
0.112,0.232,0.93333,0.112,0.232,0.93333,0.112,0.232,0.93333,0.112,0.232,0.93333,0,0.12,0,0,0.12,0,0.1104,0.1456
0,0.2,0,0,0.2,0,0,0.2,0,0,0.2,0,0,0.2,0,0,0.2,0,0.1616,0.1344
0,0.08,0,0,0.08,0,0,0.08,0,0,0.08,0,0,0.08,0,0,0.08,0,0.0912,0.1552
0,-0.008,-0,0,-0.008,-0,0,-0.008,-0,0,-0.008,-0,0,-0.008,-0,0,-0.008,-0,-0.1632,0.4896
0,0.152,0,0,0.152,0,0,0.152,0,0,0.152,0,0,0.152,0,0,0.152,0,0.1408,0.1616
0,0.264,0,0,0.264,0,0,0.264,0,0,0.264,0,0,0.264,0,0,0.264,0,0.1424,0.1648
0,-0.04,-0,0,-0.04,-0,0,-0.04,-0,0,-0.04,-0,0,-0.04,-0,0,-0.04,-0,-0.168,0.4864
0.256,0.248,-32,0.248,0.24,-31,0.248,0.24,-31,0,-0.008,-0,0,-0.008,-0,0,-0.008,-0,-0.216,0.5072
0.152,0.184,4.75,0.08,0.112,2.5,0.032,0.064,1,0,0.032,0,0,0.032,0,0,0.032,0,-0.1712,0.4816
0.056,0.016,-1.4,0,-0.04,-0,0,-0.04,-0,0,-0.04,-0,0,-0.04,-0,0,-0.04,-0,-0.1728,0.4928
0.16,0.152,-20,0.104,0.096,-13,0.072,0.064,-9,0,-0.008,-0,0,-0.008,-0,0,-0.008,-0,-0.1744,0.5632
0,0.232,0,0,0.232,0,0,0.232,0,0,0.232,0,0,0.232,0,0,0.232,0,0.1328,0.1728
0,-0.024,-0,0,-0.024,-0,0,-0.024,-0,0,-0.024,-0,0,-0.024,-0,0,-0.024,-0,-0.1808,0.5056
0,-0.056,-0,0,-0.056,-0,0,-0.056,-0,0,-0.056,-0,0,-0.056,-0,0,-0.056,-0,-0.1712,0.496
0,0.216,0,0,0.216,0,0,0.216,0,0,0.216,0,0,0.216,0,0,0.216,0,0.136,0.1664
0,-0.072,-0,0,-0.072,-0,0,-0.072,-0,0,-0.072,-0,0,-0.072,-0,0,-0.072,-0,-0.1728,0.5008
0,0.152,0,0,0.152,0,0,0.152,0,0,0.152,0,0,0.152,0,0,0.152,0,0.1296,0.1744
0,0.168,0,0,0.168,0,0,0.168,0,0,0.168,0,0,0.168,0,0,0.168,0,0.1328,0.1728
0.104,0.16,1.8571,0.064,0.096,2,0.032,0.048,2,0,0.016,0,0,0.016,0,0,0.016,0,0.1264,0.1952
0.144,-0.064,-0.69231,0.096,-0.112,-0.46154,0.072,-0.136,-0.34615,0,-0.208,-0,0,-0.208,-0,0,-0.208,-0,-0.2032,0.512
0,-0.136,-0,0,-0.136,-0,0,-0.136,-0,0,-0.136,-0,0,-0.136,-0,0,-0.136,-0,-0.1248,0.3712
0,0.064,0,0,0.064,0,0,0.064,0,0,0.064,0,0,0.064,0,0,0.064,0,0.1264,0.1808
0.096,0.152,1.7143,0.056,0.096,1.4,0.032,0.056,1.3333,0,0.024,0,0,0.024,0,0,0.024,0,0.1312,0.2016
0,0.08,0,0,0.08,0,0,0.08,0,0,0.08,0,0,0.08,0,0,0.08,0,0.1392,0.1808
0,-0.184,-0,0,-0.184,-0,0,-0.184,-0,0,-0.184,-0,0,-0.184,-0,0,-0.184,-0,-0.1872,0.5152
0.072,0.112,1.8,0,0.04,0,0,0.04,0,0,0.04,0,0,0.04,0,0,0.04,0,0.1264,0.168
0.12,0.04,-1.5,0.128,0.048,-1.6,0.08,0,-1,0,-0.08,-0,0,-0.08,-0,0,-0.08,-0,-0.192,0.5232
0.088,0,-1,0.04,-0.048,-0.45455,0,-0.088,-0,0,-0.088,-0,0,-0.088,-0,0,-0.088,-0,-0.2016,0.5296
0,-0.056,-0,0,-0.056,-0,0,-0.056,-0,0,-0.056,-0,0,-0.056,-0,0,-0.056,-0,-0.2112,0.5648
0.088,0.008,-1.1,0.048,-0.032,-0.6,0.016,-0.064,-0.2,0,-0.08,-0,0,-0.08,-0,0,-0.08,-0,-0.2176,0.568
0.128,0.056,-1.7778,0.088,0.016,-1.2222,0.064,-0.008,-0.88889,0,-0.072,-0,0,-0.072,-0,0,-0.072,-0,-0.2144,0.5616
0.088,0.136,1.8333,0.04,0.064,1.6667,0,0.024,0,0,0.024,0,0,0.024,0,0,0.024,0,0.136,0.2176
0,0.032,0,0,0.032,0,0,0.032,0,0,0.032,0,0,0.032,0,0,0.032,0,0.136,0.1888
0.104,0.16,1.8571,0.056,0.088,1.75,0.016,0.024,2,0,0.008,0,0,0.008,0,0,0.008,0,0.1312,0.2
0,-0.064,-0,0,-0.064,-0,0,-0.064,-0,0,-0.064,-0,0,-0.064,-0,0,-0.064,-0,0.1376,0.2192
0,-0.216,-0,0,-0.216,-0,0,-0.216,-0,0,-0.216,-0,0,-0.216,-0,0,-0.216,-0,-0.2192,0.5696
0.08,-0.184,-0.30303,0.008,-0.256,-0.030303,0,-0.264,-0,0,-0.264,-0,0,-0.264,-0,0,-0.264,-0,-0.2832,0.6336
0,0.04,0,0,0.04,0,0,0.04,0,0,0.04,0,0,0.04,0,0,0.04,0,0.1264,0.216
0.072,0.112,1.8,0,0.04,0,0,0.04,0,0,0.04,0,0,0.04,0,0,0.04,0,0.1264,0.2096
0.128,0.048,-1.6,0.08,0,-1,0.056,-0.024,-0.7,0,-0.08,-0,0,-0.08,-0,0,-0.08,-0,-0.2192,0.5616
0,-0.04,-0,0,-0.04,-0,0,-0.04,-0,0,-0.04,-0,0,-0.04,-0,0,-0.04,-0,-0.2176,0.568
0,0.048,0,0,0.048,0,0,0.048,0,0,0.048,0,0,0.048,0,0,0.048,0,0.1008,0.224
0,-0.088,-0,0,-0.088,-0,0,-0.088,-0,0,-0.088,-0,0,-0.088,-0,0,-0.088,-0,-0.1744,0.5056
0.072,0.112,1.8,0,0.04,0,0,0.04,0,0,0.04,0,0,0.04,0,0,0.04,0,0.136,0.1952
0.136,0.04,-1.4167,0.088,-0.008,-0.91667,0.064,-0.032,-0.66667,0,-0.096,-0,0,-0.096,-0,0,-0.096,-0,-0.1952,0.5168
0.128,0.216,1.4545,0,0.088,0,0,0.088,0,0,0.088,0,0,0.088,0,0,0.088,0,0.144,0.1808
0.064,0.104,1.6,0,0.04,0,0,0.04,0,0,0.04,0,0,0.04,0,0,0.04,0,0.144,0.1824
0.152,0.04,-1.3571,0.056,-0.056,-0.5,0,-0.112,-0,0,-0.112,-0,0,-0.112,-0,0,-0.112,-0,-0.1808,0.5232
0.12,0.12,Inf,0,0,NaN,0,0,NaN,0,0,NaN,0,0,NaN,0,0,NaN,-0.1904,0.528
0.184,0.28,1.9167,0.12,0.184,1.875,0.096,0.152,1.7143,0.032,0.048,2,0,0.016,0,0,0.016,0,0.1376,0.2048
0.192,0.024,-1.1429,0.128,-0.04,-0.7619,0.096,-0.072,-0.57143,0.032,-0.136,-0.19048,0,-0.168,-0,0,-0.168,-0,-0.2016,0.5264
0,0.104,0,0,0.104,0,0,0.104,0,0,0.104,0,0,0.104,0,0,0.104,0,0.12,0.1552
0.288,0.616,0.87805,0.176,0.392,0.81481,0.144,0.28,1.0588,0.064,0.12,1.1429,0,0.056,0,0,0.056,0,0.3408,0.3264
0.128,0.208,1.6,0.088,0.152,1.375,0.064,0.112,1.3333,0,0.048,0,0,0.048,0,0,0.048,0,0.1376,0.2032
0.096,0.168,1.3333,0.056,0.096,1.4,0.024,0.04,1.5,0,0.016,0,0,0.016,0,0,0.016,0,0.1536,0.1872
0,0.112,0,0,0.112,0,0,0.112,0,0,0.112,0,0,0.112,0,0,0.112,0,0.1504,0.1712
0.104,0.168,1.625,0.064,0.104,1.6,0.032,0.048,2,0,0.016,0,0,0.016,0,0,0.016,0,0.1536,0.1952
0.104,-0.048,-0.68421,0.056,-0.096,-0.36842,0.024,-0.128,-0.15789,0,-0.152,-0,0,-0.152,-0,0,-0.152,-0,-0.2112,0.5408
0.104,0.16,1.8571,0.064,0.104,1.6,0.032,0.048,2,0,0.016,0,0,0.016,0,0,0.016,0,0.144,0.2064
0,-0.176,-0,0,-0.176,-0,0,-0.176,-0,0,-0.176,-0,0,-0.176,-0,0,-0.176,-0,-0.2064,0.5568
0.088,-0.008,-0.91667,0.04,-0.056,-0.41667,0,-0.096,-0,0,-0.096,-0,0,-0.096,-0,0,-0.096,-0,-0.2048,0.5344
0.064,-0.056,-0.53333,0,-0.12,-0,0,-0.12,-0,0,-0.12,-0,0,-0.12,-0,0,-0.12,-0,-0.2,0.5168
0,0.008,0,0,0.008,0,0,0.008,0,0,0.008,0,0,0.008,0,0,0.008,0,0.128,0.1968
0,-0.12,-0,0,-0.12,-0,0,-0.12,-0,0,-0.12,-0,0,-0.12,-0,0,-0.12,-0,-0.192,0.5328
0,0.032,0,0,0.032,0,0,0.032,0,0,0.032,0,0,0.032,0,0,0.032,0,0.1376,0.1632
0.104,-0.048,-0.68421,0.064,-0.088,-0.42105,0.024,-0.128,-0.15789,0,-0.152,-0,0,-0.152,-0,0,-0.152,-0,-0.1952,0.5264
0,0.056,0,0,0.056,0,0,0.056,0,0,0.056,0,0,0.056,0,0,0.056,0,0.16,0.1776
0,-0.2,-0,0,-0.2,-0,0,-0.2,-0,0,-0.2,-0,0,-0.2,-0,0,-0.2,-0,-0.1776,0.5296
0,-0.136,-0,0,-0.136,-0,0,-0.136,-0,0,-0.136,-0,0,-0.136,-0,0,-0.136,-0,-0.1808,0.536
0.112,0.192,1.4,0.08,0.136,1.4286,0.056,0.096,1.4,0,0.04,0,0,0.04,0,0,0.04,0,0.1552,0.1968
0.12,0.2,1.5,0.08,0.136,1.4286,0.056,0.104,1.1667,0,0.048,0,0,0.048,0,0,0.048,0,0.1552,0.2016
0,-0.16,-0,0,-0.16,-0,0,-0.16,-0,0,-0.16,-0,0,-0.16,-0,0,-0.16,-0,-0.1824,0.5344
0,0.08,0,0,0.08,0,0,0.08,0,0,0.08,0,0,0.08,0,0,0.08,0,0.1584,0.184
0.144,0.224,1.8,0.096,0.144,2,0.064,0.096,2,0,0.032,0,0,0.032,0,0,0.032,0,0.1344,0.2128
0,0.024,0,0,0.024,0,0,0.024,0,0,0.024,0,0,0.024,0,0,0.024,0,0.1056,0.176
0.184,0.288,1.7692,0.12,0.192,1.6667,0.088,0.144,1.5714,0,0.056,0,0,0.056,0,0,0.056,0,0.1424,0.2128
0.104,0.048,-1.8571,0,-0.056,-0,0,-0.056,-0,0,-0.056,-0,0,-0.056,-0,0,-0.056,-0,-0.224,0.5744
0,-0.04,-0,0,-0.04,-0,0,-0.04,-0,0,-0.04,-0,0,-0.04,-0,0,-0.04,-0,-0.224,0.5808
0,-0.088,-0,0,-0.088,-0,0,-0.088,-0,0,-0.088,-0,0,-0.088,-0,0,-0.088,-0,-0.2176,0.5648
0.016,-0.072,-0.18182,0,-0.088,-0,0,-0.088,-0,0,-0.088,-0,0,-0.088,-0,0,-0.088,-0,-0.2144,0.5472
0,-0.112,-0,0,-0.112,-0,0,-0.112,-0,0,-0.112,-0,0,-0.112,-0,0,-0.112,-0,-0.1824,0.4576
0,-0.008,-0,0,-0.008,-0,0,-0.008,-0,0,-0.008,-0,0,-0.008,-0,0,-0.008,-0,-0.2,0.5488
0,0.032,0,0,0.032,0,0,0.032,0,0,0.032,0,0,0.032,0,0,0.032,0,0.1264,0.2064
0.12,0.088,-3.75,0.064,0.032,-2,0.032,0,-1,0,-0.032,-0,0,-0.032,-0,0,-0.032,-0,-0.2256,0.5584
0,-0.096,-0,0,-0.096,-0,0,-0.096,-0,0,-0.096,-0,0,-0.096,-0,0,-0.096,-0,-0.2112,0.5648
0.096,0.152,1.7143,0.04,0.064,1.6667,0,0.024,0,0,0.024,0,0,0.024,0,0,0.024,0,0.1328,0.216
0.104,0.16,1.8571,0.056,0.088,1.75,0,0.032,0,0,0.032,0,0,0.032,0,0,0.032,0,0.1344,0.2128
0.112,-0.112,-0.5,0.064,-0.16,-0.28571,0.04,-0.184,-0.17857,0,-0.224,-0,0,-0.224,-0,0,-0.224,-0,-0.2112,0.5424
0,0.056,0,0,0.056,0,0,0.056,0,0,0.056,0,0,0.056,0,0,0.056,0,0.1248,0.2016
0,-0.208,-0,0,-0.208,-0,0,-0.208,-0,0,-0.208,-0,0,-0.208,-0,0,-0.208,-0,-0.2096,0.5264
0.12,0.184,1.875,0.072,0.112,1.8,0.04,0.064,1.6667,0,0.024,0,0,0.024,0,0,0.024,0,0.1264,0.216
0.168,0.056,-1.5,0.12,0.008,-1.0714,0.096,-0.016,-0.85714,0.016,-0.096,-0.14286,0,-0.112,-0,0,-0.112,-0,-0.2192,0.544
0,0.04,0,0,0.04,0,0,0.04,0,0,0.04,0,0,0.04,0,0,0.04,0,0.1344,0.1888
0,0.192,0,0,0.192,0,0,0.192,0,0,0.192,0,0,0.192,0,0,0.192,0,0.1296,0.1968
0.096,0.032,-1.5,0.056,-0.008,-0.875,0.032,-0.032,-0.5,0,-0.064,-0,0,-0.064,-0,0,-0.064,-0,-0.2032,0.5296
0,0.176,0,0,0.176,0,0,0.176,0,0,0.176,0,0,0.176,0,0,0.176,0,0.128,0.1968
0.104,-0.024,-0.8125,0.064,-0.064,-0.5,0.032,-0.096,-0.25,0,-0.128,-0,0,-0.128,-0,0,-0.128,-0,-0.2048,0.5232
0.32,0.192,-2.5,0.28,0.152,-2.1875,0.264,0.136,-2.0625,0.016,-0.112,-0.125,0,-0.128,-0,0,-0.128,-0,-0.2576,0.7296
0.088,0.04,-1.8333,0.048,0,-1,0,-0.048,-0,0,-0.048,-0,0,-0.048,-0,0,-0.048,-0,-0.1888,0.4976
0,0.128,0,0,0.128,0,0,0.128,0,0,0.128,0,0,0.128,0,0,0.128,0,0.1312,0.1808
0.096,0.152,1.7143,0.056,0.096,1.4,0.024,0.04,1.5,0,0.016,0,0,0.016,0,0,0.016,0,0.136,0.1936
0.072,-0.056,-0.5625,0.032,-0.096,-0.25,0,-0.128,-0,0,-0.128,-0,0,-0.128,-0,0,-0.128,-0,-0.1872,0.4928
0.088,0.136,1.8333,0.048,0.072,2,0,0.024,0,0,0.024,0,0,0.024,0,0,0.024,0,0.1376,0.1936
0,0.104,0,0,0.104,0,0,0.104,0,0,0.104,0,0,0.104,0,0,0.104,0,0.1392,0.1888
0.104,-0.136,-0.43333,0.064,-0.176,-0.26667,0.032,-0.208,-0.13333,0,-0.24,-0,0,-0.24,-0,0,-0.24,-0,-0.1936,0.5184
0,-0.208,-0,0,-0.208,-0,0,-0.208,-0,0,-0.208,-0,0,-0.208,-0,0,-0.208,-0,-0.1952,0.5424
0,0.08,0,0,0.08,0,0,0.08,0,0,0.08,0,0,0.08,0,0,0.08,0,0.136,0.1888
0.2,0.08,-1.6667,0.2,0.08,-1.6667,0.04,-0.08,-0.33333,0,-0.12,-0,0,-0.12,-0,0,-0.12,-0,-0.1952,0.5424
0,-0.04,-0,0,-0.04,-0,0,-0.04,-0,0,-0.04,-0,0,-0.04,-0,0,-0.04,-0,0.1328,0.1952
0,0.056,0,0,0.056,0,0,0.056,0,0,0.056,0,0,0.056,0,0,0.056,0,0.1376,0.1984
0.12,-0.016,-0.88235,0.072,-0.064,-0.52941,0.032,-0.104,-0.23529,0,-0.136,-0,0,-0.136,-0,0,-0.136,-0,-0.2128,0.5472
0.168,-0.04,-0.80769,0.112,-0.096,-0.53846,0.088,-0.12,-0.42308,0,-0.208,-0,0,-0.208,-0,0,-0.208,-0,-0.2576,0.632
0.008,0.016,1,0,0.008,0,0,0.008,0,0,0.008,0,0,0.008,0,0,0.008,0,0.1152,0.168
0,0.096,0,0,0.096,0,0,0.096,0,0,0.096,0,0,0.096,0,0,0.096,0,0.1328,0.1952
-0.032,0.08,-0.28571,0.072,0.136,1.125,0,0.064,0,0,0.064,0,0,0.064,0,0,0.064,0,0.1184,0.2048
0,-0.224,-0,0,-0.224,-0,0,-0.224,-0,0,-0.224,-0,0,-0.224,-0,0,-0.224,-0,-0.192,0.5248
0,0,NaN,0,0,NaN,0,0,NaN,0,0,NaN,0,0,NaN,0,0,NaN,0.128,0.1952
0.08,0.128,1.6667,0.032,0.048,2,0,0.016,0,0,0.016,0,0,0.016,0,0,0.016,0,0.128,0.2032
0,0.136,0,0,0.136,0,0,0.136,0,0,0.136,0,0,0.136,0,0,0.136,0,0.1184,0.1984
0.144,0.104,-3.6,0.088,0.048,-2.2,0.064,0.024,-1.6,0,-0.04,-0,0,-0.04,-0,0,-0.04,-0,-0.1616,0.4272
0.12,0.12,Inf,0.072,0.072,Inf,0.048,0.048,Inf,0,0,NaN,0,0,NaN,0,0,NaN,-0.2032,0.5168
0,0.056,0,0,0.056,0,0,0.056,0,0,0.056,0,0,0.056,0,0,0.056,0,0.1264,0.1968
0,0.152,0,0,0.152,0,0,0.152,0,0,0.152,0,0,0.152,0,0,0.152,0,0.1264,0.2208
0,-0.08,-0,0,-0.08,-0,0,-0.08,-0,0,-0.08,-0,0,-0.08,-0,0,-0.08,-0,-0.1904,0.52
0,-0.12,-0,0,-0.12,-0,0,-0.12,-0,0,-0.12,-0,0,-0.12,-0,0,-0.12,-0,-0.1744,0.5008
0,-0.032,-0,0,-0.032,-0,0,-0.032,-0,0,-0.032,-0,0,-0.032,-0,0,-0.032,-0,-0.1696,0.4944
0,-0.008,-0,0,-0.008,-0,0,-0.008,-0,0,-0.008,-0,0,-0.008,-0,0,-0.008,-0,-0.1712,0.4992
0.112,0,-1,0.072,-0.04,-0.64286,0.04,-0.072,-0.35714,0,-0.112,-0,0,-0.112,-0,0,-0.112,-0,-0.1904,0.4832
0,-0.088,-0,0,-0.088,-0,0,-0.088,-0,0,-0.088,-0,0,-0.088,-0,0,-0.088,-0,-0.1728,0.488
0,0.072,0,0,0.072,0,0,0.072,0,0,0.072,0,0,0.072,0,0,0.072,0,0.1152,0.1808
0,-0.12,-0,0,-0.12,-0,0,-0.12,-0,0,-0.12,-0,0,-0.12,-0,0,-0.12,-0,-0.2336,0.5936
0,0.056,0,0,0.056,0,0,0.056,0,0,0.056,0,0,0.056,0,0,0.056,0,0.1344,0.168
0.104,0.08,-4.3333,0.064,0.04,-2.6667,0.04,0.016,-1.6667,0,-0.024,-0,0,-0.024,-0,0,-0.024,-0,-0.1952,0.5072
0,-0.016,-0,0,-0.016,-0,0,-0.016,-0,0,-0.016,-0,0,-0.016,-0,0,-0.016,-0,-0.2064,0.552
0,0.024,0,0,0.024,0,0,0.024,0,0,0.024,0,0,0.024,0,0,0.024,0,-0.1616,0.4304
0.112,0.168,2,0.064,0.096,2,0.032,0.04,4,0,0.008,0,0,0.008,0,0,0.008,0,0.1296,0.2064
0,0.064,0,0,0.064,0,0,0.064,0,0,0.064,0,0,0.064,0,0,0.064,0,0.1392,0.2048
0.096,0.152,1.7143,0.048,0.08,1.5,0,0.032,0,0,0.032,0,0,0.032,0,0,0.032,0,0.1296,0.208
0,-0.032,-0,0,-0.032,-0,0,-0.032,-0,0,-0.032,-0,0,-0.032,-0,0,-0.032,-0,0.1344,0.2032
0,0.128,0,0,0.128,0,0,0.128,0,0,0.128,0,0,0.128,0,0,0.128,0,0.1328,0.1968
0,-0.296,-0,0,-0.296,-0,0,-0.296,-0,0,-0.296,-0,0,-0.296,-0,0,-0.296,-0,-0.1568,0.4896
0,0,NaN,0,0,NaN,0,0,NaN,0,0,NaN,0,0,NaN,0,0,NaN,0.1568,0.352
0,-0.24,-0,0,-0.24,-0,0,-0.24,-0,0,-0.24,-0,0,-0.24,-0,0,-0.24,-0,0.1344,0.4
0.08,0.136,1.4286,0,0.056,0,0,0.056,0,0,0.056,0,0,0.056,0,0,0.056,0,0.1872,0.5008
0.032,0.088,0.57143,0,0.056,0,0,0.056,0,0,0.056,0,0,0.056,0,0,0.056,0,0.0928,0.424
0.136,0.224,1.5455,0.064,0.12,1.1429,0.024,0.048,1,0,0.024,0,0,0.024,0,0,0.024,0,0.1776,0.6832
