0.096,0.168,1.3333,0.048,0.08,1.5,0,0.032,0,0,0.032,0,0,0.032,0,0,0.032,0,0.1504,0.4256
0.12,-0.376,-0.24194,0.072,-0.424,-0.14516,0.032,-0.464,-0.064516,0,-0.496,-0,0,-0.496,-0,0,-0.496,-0,-0.3616,0.8464
0.144,0.232,1.6364,0.088,0.144,1.5714,0.056,0.088,1.75,0,0.032,0,0,0.032,0,0,0.032,0,0.152,0.4976
0.136,0.224,1.5455,0.08,0.144,1.25,0.056,0.096,1.4,0,0.04,0,0,0.04,0,0,0.04,0,0.1728,0.5584
0.12,0.216,1.25,0.072,0.128,1.2857,0.032,0.056,1.3333,0,0.024,0,0,0.024,0,0,0.024,0,0.1568,0.496
0.12,0.112,-15,0.072,0.064,-9,0.04,0.032,-5,0,-0.008,-0,0,-0.008,-0,0,-0.008,-0,-0.6272,1.4432
0,0.128,0,0,0.128,0,0,0.128,0,0,0.128,0,0,0.128,0,0,0.128,0,0.1504,0.4784
0.128,0.216,1.4545,0.08,0.136,1.4286,0.048,0.072,2,0,0.024,0,0,0.024,0,0,0.024,0,0.1488,0.496
0.096,0.184,1.0909,0.048,0.096,1,0,0.048,0,0,0.048,0,0,0.048,0,0,0.048,0,0.192,0.6128
0.072,0.136,1.125,0,0.064,0,0,0.064,0,0,0.064,0,0,0.064,0,0,0.064,0,0.152,0.4976
0.136,-0.52,-0.20732,0.088,-0.568,-0.13415,0.056,-0.6,-0.085366,0,-0.656,-0,0,-0.656,-0,0,-0.656,-0,-0.6208,1.3728
0,-0.384,-0,0,-0.384,-0,0,-0.384,-0,0,-0.384,-0,0,-0.384,-0,0,-0.384,-0,0.1104,0.4272
0.088,-0.512,-0.14667,0,-0.6,-0,0,-0.6,-0,0,-0.6,-0,0,-0.6,-0,0,-0.6,-0,-0.6416,1.4272
0.04,0.072,1.25,0,0.032,0,0,0.032,0,0,0.032,0,0,0.032,0,0,0.032,0,0.1584,0.528
0.184,0.288,1.7692,0.096,0.168,1.3333,0.064,0.104,1.6,0,0.04,0,0,0.04,0,0,0.04,0,0.1712,0.4624
0.152,0.248,1.5833,0.072,0.136,1.125,0.04,0.064,1.6667,0,0.024,0,0,0.024,0,0,0.024,0,0.208,0.5952
0.112,-0.056,-0.66667,0,-0.168,-0,0,-0.168,-0,0,-0.168,-0,0,-0.168,-0,0,-0.168,-0,-0.5952,1.3968
0.144,0.248,1.3846,0.072,0.136,1.125,0.04,0.072,1.25,0,0.032,0,0,0.032,0,0,0.032,0,0.2064,0.5952
0.304,0.032,-1.1176,0.304,0.032,-1.1176,0.304,0.032,-1.1176,0.232,-0.04,-0.85294,0.064,-0.208,-0.23529,0,-0.272,-0,-0.472,1.1056
0.112,0.192,1.4,0.056,0.104,1.1667,0,0.048,0,0,0.048,0,0,0.048,0,0,0.048,0,0.12,0.4144
0.392,0.536,2.7222,0.192,0.304,1.7143,0.128,0.216,1.4545,0,0.088,0,0,0.088,0,0,0.088,0,0.2,0.592
0.104,0.184,1.3,0.056,0.096,1.4,0,0.04,0,0,0.04,0,0,0.04,0,0,0.04,0,0.152,0.408
0.112,0.2,1.2727,0.056,0.104,1.1667,0,0.048,0,0,0.048,0,0,0.048,0,0,0.048,0,0.1584,0.48
0.112,0.2,1.2727,0.056,0.096,1.4,0,0.04,0,0,0.04,0,0,0.04,0,0,0.04,0,0.1616,0.5392
0.112,0.208,1.1667,0.056,0.112,1,0,0.056,0,0,0.056,0,0,0.056,0,0,0.056,0,0.1648,0.4784
0.104,0.192,1.1818,0.056,0.104,1.1667,0,0.048,0,0,0.048,0,0,0.048,0,0,0.048,0,0.2128,0.5744
0.112,-0.336,-0.25,0.056,-0.392,-0.125,0,-0.448,-0,0,-0.448,-0,0,-0.448,-0,0,-0.448,-0,-0.5312,1.1248
0.12,0.208,1.3636,0.072,0.12,1.5,0.024,0.032,3,0,0.008,0,0,0.008,0,0,0.008,0,0.2,0.6064
0.112,0.2,1.2727,0.064,0.112,1.3333,0.008,0.008,Inf,0,0,NaN,0,0,NaN,0,0,NaN,0.1648,0.5056
0.096,0.176,1.2,0.04,0.072,1.25,0,0.032,0,0,0.032,0,0,0.032,0,0,0.032,0,0.1984,0.6016
0.112,0.2,1.2727,0.056,0.096,1.4,0,0.04,0,0,0.04,0,0,0.04,0,0,0.04,0,0.1968,0.608
0.12,-0.136,-0.46875,0.064,-0.192,-0.25,0,-0.256,-0,0,-0.256,-0,0,-0.256,-0,0,-0.256,-0,-0.5104,1.184
0.064,0.12,1.1429,0,0.056,0,0,0.056,0,0,0.056,0,0,0.056,0,0,0.056,0,0.1952,0.6016
0.112,-0.256,-0.30435,0.056,-0.312,-0.15217,0.008,-0.36,-0.021739,0,-0.368,-0,0,-0.368,-0,0,-0.368,-0,-0.5968,1.3952
0.104,0.192,1.1818,0.056,0.104,1.1667,0,0.048,0,0,0.048,0,0,0.048,0,0,0.048,0,0.1984,0.6032
0.112,0.2,1.2727,0.056,0.104,1.1667,0,0.048,0,0,0.048,0,0,0.048,0,0,0.048,0,0.1984,0.608
0.12,-0.352,-0.25424,0.064,-0.408,-0.13559,0.032,-0.44,-0.067797,0,-0.472,-0,0,-0.472,-0,0,-0.472,-0,-0.6064,1.4112
0.12,0.208,1.3636,0.064,0.112,1.3333,0.016,0.024,2,0,0.008,0,0,0.008,0,0,0.008,0,0.1984,0.6016
0.128,-0.448,-0.22222,0.072,-0.504,-0.125,0.032,-0.544,-0.055556,0,-0.576,-0,0,-0.576,-0,0,-0.576,-0,-0.6064,1.4144
0.12,-0.48,-0.2,0.064,-0.536,-0.10667,0.016,-0.584,-0.026667,0,-0.6,-0,0,-0.6,-0,0,-0.6,-0,-0.5984,1.4048
0.12,0.216,1.25,0.064,0.12,1.1429,0.016,0.024,2,0,0.008,0,0,0.008,0,0,0.008,0,0.2048,0.6096
0.128,-0.064,-0.66667,0.072,-0.12,-0.375,0.024,-0.168,-0.125,0,-0.192,-0,0,-0.192,-0,0,-0.192,-0,-0.6128,1.4288
0.12,0.216,1.25,0.064,0.12,1.1429,0,0.056,0,0,0.056,0,0,0.056,0,0,0.056,0,0.2016,0.6176
0.136,-0.192,-0.41463,0.072,-0.256,-0.21951,0.04,-0.288,-0.12195,0,-0.328,-0,0,-0.328,-0,0,-0.328,-0,-0.512,1.216
0.096,0.176,1.2,0.032,0.048,2,0,0.016,0,0,0.016,0,0,0.016,0,0,0.016,0,0.2032,0.5984
0.048,0.088,1.2,0,0.04,0,0,0.04,0,0,0.04,0,0,0.04,0,0,0.04,0,0.1232,0.192
0.192,0.088,-1.8462,0.088,-0.016,-0.84615,0.056,-0.048,-0.53846,0,-0.104,-0,0,-0.104,-0,0,-0.104,-0,-0.4528,1.0816
0,0.128,0,0,0.128,0,0,0.128,0,0,0.128,0,0,0.128,0,0,0.128,0,0.1488,0.3456
0.104,0.176,1.4444,0.04,0.048,5,0,0.008,0,0,0.008,0,0,0.008,0,0,0.008,0,0.2096,0.5792
0,0.144,0,0,0.144,0,0,0.144,0,0,0.144,0,0,0.144,0,0,0.144,0,0.2256,0.4032
0.144,0.248,1.3846,0.08,0.144,1.25,0.032,0.064,1,0,0.032,0,0,0.032,0,0,0.032,0,0.1488,0.4464
0.136,-0.16,-0.45946,0.064,-0.232,-0.21622,0,-0.296,-0,0,-0.296,-0,0,-0.296,-0,0,-0.296,-0,-0.5888,1.248
-0.112,-0.296,0.6087,-0.112,-0.296,0.6087,-0.112,-0.296,0.6087,0.384,0.2,-2.087,0.224,0.04,-1.2174,0.16,-0.024,-0.86957,-0.4928,1.2864
0.128,-0.024,-0.84211,0.056,-0.096,-0.36842,0,-0.152,-0,0,-0.152,-0,0,-0.152,-0,0,-0.152,-0,-0.632,1.4768
0.12,0.216,1.25,0.048,0.088,1.2,0,0.04,0,0,0.04,0,0,0.04,0,0,0.04,0,0.2272,0.6336
0.136,0.232,1.4167,0.064,0.12,1.1429,0,0.056,0,0,0.056,0,0,0.056,0,0,0.056,0,0.2272,0.632
0.128,0.232,1.2308,0.064,0.12,1.1429,0,0.056,0,0,0.056,0,0,0.056,0,0,0.056,0,0.184,0.4992
0.128,0.224,1.3333,0.064,0.112,1.3333,0,0.048,0,0,0.048,0,0,0.048,0,0,0.048,0,0.1808,0.5008
0.152,-0.528,-0.22353,0.08,-0.6,-0.11765,0.04,-0.64,-0.058824,0,-0.68,-0,0,-0.68,-0,0,-0.68,-0,-0.5824,1.2672
0.072,-0.512,-0.12329,0,-0.584,-0,0,-0.584,-0,0,-0.584,-0,0,-0.584,-0,0,-0.584,-0,-0.6432,1.4944
0.136,0.24,1.3077,0.056,0.112,1,0,0.056,0,0,0.056,0,0,0.056,0,0,0.056,0,0.2352,0.6208
0.12,-0.04,-0.75,0.016,-0.144,-0.1,0.008,-0.152,-0.05,0,-0.16,-0,0,-0.16,-0,0,-0.16,-0,-0.4944,1.1728
0.128,0.008,-1.0667,0.056,-0.064,-0.46667,0,-0.12,-0,0,-0.12,-0,0,-0.12,-0,0,-0.12,-0,-0.6336,1.5008
0.144,0.248,1.3846,0.072,0.128,1.2857,0.024,0.032,3,0,0.008,0,0,0.008,0,0,0.008,0,0.2272,0.6384
0.12,0.216,1.25,0.064,0.12,1.1429,0,0.056,0,0,0.056,0,0,0.056,0,0,0.056,0,0.2304,0.632
0.12,-0.408,-0.22727,0.064,-0.464,-0.12121,0,-0.528,-0,0,-0.528,-0,0,-0.528,-0,0,-0.528,-0,-0.5008,1.1728
0.104,0.2,1.0833,0.04,0.08,1,0,0.04,0,0,0.04,0,0,0.04,0,0,0.04,0,0.1408,0.384
0.056,0.104,1.1667,0,0.048,0,0,0.048,0,0,0.048,0,0,0.048,0,0,0.048,0,0.1872,0.5104
0.112,0.2,1.2727,0.048,0.08,1.5,0,0.032,0,0,0.032,0,0,0.032,0,0,0.032,0,0.2256,0.6512
0.152,0.264,1.3571,0.088,0.16,1.2222,0.048,0.088,1.2,0,0.04,0,0,0.04,0,0,0.04,0,0.1824,0.5216
0.112,-0.16,-0.41176,0.056,-0.216,-0.20588,0,-0.272,-0,0,-0.272,-0,0,-0.272,-0,0,-0.272,-0,-0.6496,1.5152
0.12,0.224,1.1538,0.072,0.136,1.125,0.024,0.032,3,0,0.008,0,0,0.008,0,0,0.008,0,0.1808,0.5264
0.128,0.216,1.4545,0.064,0.112,1.3333,0,0.048,0,0,0.048,0,0,0.048,0,0,0.048,0,0.1808,0.5296
0.104,0.2,1.0833,0.04,0.08,1,0,0.04,0,0,0.04,0,0,0.04,0,0,0.04,0,0.2288,0.6624
0.136,0.24,1.3077,0.08,0.144,1.25,0.04,0.072,1.25,0,0.032,0,0,0.032,0,0,0.032,0,0.2224,0.6656
0.104,0.2,1.0833,0,0.096,0,0,0.096,0,0,0.096,0,0,0.096,0,0,0.096,0,0.2192,0.6592
0.112,0.2,1.2727,0.056,0.088,1.75,0,0.032,0,0,0.032,0,0,0.032,0,0,0.032,0,0.2048,0.6672
0.136,0.24,1.3077,0.08,0.152,1.1111,0.032,0.048,2,0,0.016,0,0,0.016,0,0,0.016,0,0.184,0.528
0.128,0.216,1.4545,0.072,0.112,1.8,0,0.04,0,0,0.04,0,0,0.04,0,0,0.04,0,0.168,0.5296
0.112,0.216,1.0769,0.056,0.112,1,0,0.056,0,0,0.056,0,0,0.056,0,0,0.056,0,0.2144,0.6432
0.128,0.24,1.1429,0.072,0.144,1,0.024,0.04,1.5,0,0.016,0,0,0.016,0,0,0.016,0,0.216,0.6848
0,-0.16,-0,0,-0.16,-0,0,-0.16,-0,0,-0.16,-0,0,-0.16,-0,0,-0.16,-0,0.1248,0.3984
0,-0.272,-0,0,-0.272,-0,0,-0.272,-0,0,-0.272,-0,0,-0.272,-0,0,-0.272,-0,-0.264,0.8064
0.128,0.2,1.7778,0.032,0.04,4,0,0.008,0,0,0.008,0,0,0.008,0,0,0.008,0,0.144,0.3312
0.112,0.184,1.5556,0,0.072,0,0,0.072,0,0,0.072,0,0,0.072,0,0,0.072,0,0.2064,0.6736
0,-0.144,-0,0,-0.144,-0,0,-0.144,-0,0,-0.144,-0,0,-0.144,-0,0,-0.144,-0,-0.6752,1.5472
0,0.336,0,0,0.336,0,0,0.336,0,0,0.336,0,0,0.336,0,0,0.336,0,0.1856,0.5488
0.128,0.224,1.3333,0.064,0.112,1.3333,0,0.048,0,0,0.048,0,0,0.048,0,0,0.048,0,0.1712,0.5312
0,0.08,0,0,0.08,0,0,0.08,0,0,0.08,0,0,0.08,0,0,0.08,0,0.1664,0.5488
0.144,0.24,1.5,0.088,0.152,1.375,0.048,0.08,1.5,0,0.032,0,0,0.032,0,0,0.032,0,0.1712,0.52
0.072,0.152,0.9,0,0.08,0,0,0.08,0,0,0.08,0,0,0.08,0,0,0.08,0,0.216,0.6576
0.096,0.176,1.2,0.032,0.056,1.3333,0,0.024,0,0,0.024,0,0,0.024,0,0,0.024,0,0.1712,0.536
0.552,0.208,-1.6047,0.296,-0.048,-0.86047,0.144,-0.2,-0.4186,0.072,-0.272,-0.2093,0,-0.344,-0,0,-0.344,-0,-0.504,1.128
0.144,0.248,1.3846,0.08,0.144,1.25,0.024,0.04,1.5,0,0.016,0,0,0.016,0,0,0.016,0,0.1776,0.4944
0,-0.504,-0,0,-0.504,-0,0,-0.504,-0,0,-0.504,-0,0,-0.504,-0,0,-0.504,-0,0.1792,0.5152
0.112,0.2,1.2727,0.048,0.096,1,0,0.048,0,0,0.048,0,0,0.048,0,0,0.048,0,0.1984,0.664
0,0.208,0,0,0.208,0,0,0.208,0,0,0.208,0,0,0.208,0,0,0.208,0,0.1264,0.4224
0.384,0.288,-4,0.208,0.112,-2.1667,0.128,0.032,-1.3333,0,-0.096,-0,0,-0.096,-0,0,-0.096,-0,-0.4896,1.144
0.232,-0.016,-0.93548,0.104,-0.144,-0.41935,0.072,-0.176,-0.29032,0,-0.248,-0,0,-0.248,-0,0,-0.248,-0,-0.6272,1.4624
0.192,-0.072,-0.72727,0.088,-0.176,-0.33333,0.04,-0.224,-0.15152,0,-0.264,-0,0,-0.264,-0,0,-0.264,-0,-0.4912,1.1504
0.128,0.216,1.4545,0.024,0.04,1.5,0,0.016,0,0,0.016,0,0,0.016,0,0,0.016,0,0.1264,0.3712
0.352,0.488,2.5882,0.192,0.296,1.8462,0.128,0.208,1.6,0,0.08,0,0,0.08,0,0,0.08,0,0.2112,0.5952
0,-0.16,-0,0,-0.16,-0,0,-0.16,-0,0,-0.16,-0,0,-0.16,-0,0,-0.16,-0,0.1088,0.3552
0.12,0.2,1.5,0.056,0.096,1.4,0,0.04,0,0,0.04,0,0,0.04,0,0,0.04,0,0.1968,0.4768
0.08,0.136,1.4286,0,0.056,0,0,0.056,0,0,0.056,0,0,0.056,0,0,0.056,0,0.1456,0.4944
0.112,0.2,1.2727,0.064,0.128,1,0.032,0.064,1,0,0.032,0,0,0.032,0,0,0.032,0,0.1568,0.4608
0,-0.088,-0,0,-0.088,-0,0,-0.088,-0,0,-0.088,-0,0,-0.088,-0,0,-0.088,-0,0.0864,0.2864
0.104,0.184,1.3,0.056,0.104,1.1667,0.008,0.008,Inf,0,0,NaN,0,0,NaN,0,0,NaN,0.152,0.4864
0.072,0.128,1.2857,0,0.056,0,0,0.056,0,0,0.056,0,0,0.056,0,0,0.056,0,0.1728,0.4416
0,-0.008,-0,0,-0.008,-0,0,-0.008,-0,0,-0.008,-0,0,-0.008,-0,0,-0.008,-0,0.1584,0.4656
0,-0.032,-0,0,-0.032,-0,0,-0.032,-0,0,-0.032,-0,0,-0.032,-0,0,-0.032,-0,0.104,0.2432
0.184,0.296,1.6429,0.096,0.176,1.2,0.056,0.104,1.1667,0,0.048,0,0,0.048,0,0,0.048,0,0.1696,0.4624
0.216,-0.032,-0.87097,0.104,-0.144,-0.41935,0.064,-0.184,-0.25806,0,-0.248,-0,0,-0.248,-0,0,-0.248,-0,-0.5824,1.3728
0.104,-0.208,-0.33333,0.056,-0.256,-0.17949,0,-0.312,-0,0,-0.312,-0,0,-0.312,-0,0,-0.312,-0,-0.3664,0.9216
0.128,-0.04,-0.7619,0.064,-0.104,-0.38095,0.024,-0.144,-0.14286,0,-0.168,-0,0,-0.168,-0,0,-0.168,-0,-0.4992,1.192
0.168,0.264,1.75,0.072,0.136,1.125,0.04,0.072,1.25,0,0.032,0,0,0.032,0,0,0.032,0,0.208,0.536
0.088,-0.04,-0.6875,0.024,-0.104,-0.1875,0,-0.128,-0,0,-0.128,-0,0,-0.128,-0,0,-0.128,-0,-0.4736,1.1136
0.056,0.096,1.4,0,0.04,0,0,0.04,0,0,0.04,0,0,0.04,0,0,0.04,0,0.1232,0.3824
0.08,0.152,1.1111,0,0.072,0,0,0.072,0,0,0.072,0,0,0.072,0,0,0.072,0,0.1632,0.52
0.088,-0.4,-0.18033,0.032,-0.456,-0.065574,0,-0.488,-0,0,-0.488,-0,0,-0.488,-0,0,-0.488,-0,-0.3808,0.8864
0.144,0.232,1.6364,0.088,0.152,1.375,0.064,0.112,1.3333,0,0.048,0,0,0.048,0,0,0.048,0,0.1616,0.5232
0.072,0.112,1.8,0,0.04,0,0,0.04,0,0,0.04,0,0,0.04,0,0,0.04,0,0.2016,0.4736
0.112,0.184,1.5556,0.064,0.104,1.6,0,0.04,0,0,0.04,0,0,0.04,0,0,0.04,0,0.1568,0.5312
0,0.24,0,0,0.24,0,0,0.24,0,0,0.24,0,0,0.24,0,0,0.24,0,0.16,0.5328
0.088,0.16,1.2222,0.024,0.048,1,0,0.024,0,0,0.024,0,0,0.024,0,0,0.024,0,0.1968,0.624
0.104,-0.512,-0.16883,0.056,-0.56,-0.090909,0,-0.616,-0,0,-0.616,-0,0,-0.616,-0,0,-0.616,-0,-0.6192,1.4672
0.136,0.224,1.5455,0.08,0.136,1.4286,0.048,0.08,1.5,0,0.032,0,0,0.032,0,0,0.032,0,0.1648,0.5008
0.08,0.136,1.4286,0,0.056,0,0,0.056,0,0,0.056,0,0,0.056,0,0,0.056,0,0.0768,0.2528
0,-0.224,-0,0,-0.224,-0,0,-0.224,-0,0,-0.224,-0,0,-0.224,-0,0,-0.224,-0,0.1344,0.3584
0.112,0.192,1.4,0.056,0.088,1.75,0,0.032,0,0,0.032,0,0,0.032,0,0,0.032,0,0.192,0.624
0.096,-0.488,-0.16438,0.032,-0.552,-0.054795,0,-0.584,-0,0,-0.584,-0,0,-0.584,-0,0,-0.584,-0,-0.6272,1.4544
0.088,-0.488,-0.15278,0.032,-0.544,-0.055556,0,-0.576,-0,0,-0.576,-0,0,-0.576,-0,0,-0.576,-0,-0.5952,1.2512
0.096,-0.392,-0.19672,0,-0.488,-0,0,-0.488,-0,0,-0.488,-0,0,-0.488,-0,0,-0.488,-0,-0.4784,1.1376
0.12,0.2,1.5,0.072,0.12,1.5,0.04,0.064,1.6667,0,0.024,0,0,0.024,0,0,0.024,0,0.1872,0.632
0.112,0.192,1.4,0.064,0.104,1.6,0,0.04,0,0,0.04,0,0,0.04,0,0,0.04,0,0.1968,0.6336
0.096,0.176,1.2,0.048,0.096,1,0,0.048,0,0,0.048,0,0,0.048,0,0,0.048,0,0.1936,0.6224
0.088,-0.472,-0.15714,0.024,-0.536,-0.042857,0,-0.56,-0,0,-0.56,-0,0,-0.56,-0,0,-0.56,-0,-0.5936,1.416
0.088,-0.472,-0.15714,0.016,-0.544,-0.028571,0,-0.56,-0,0,-0.56,-0,0,-0.56,-0,0,-0.56,-0,-0.3664,0.8512
0.096,0.168,1.3333,0.048,0.088,1.2,0,0.04,0,0,0.04,0,0,0.04,0,0,0.04,0,0.184,0.4992
0.072,0.128,1.2857,0,0.056,0,0,0.056,0,0,0.056,0,0,0.056,0,0,0.056,0,0.1696,0.4848
0.08,0.144,1.25,0,0.064,0,0,0.064,0,0,0.064,0,0,0.064,0,0,0.064,0,0.184,0.4688
0.096,0.16,1.5,0.032,0.056,1.3333,0,0.024,0,0,0.024,0,0,0.024,0,0,0.024,0,0.2128,0.6368
0.088,0.16,1.2222,0.032,0.056,1.3333,0,0.024,0,0,0.024,0,0,0.024,0,0,0.024,0,0.16,0.496
0.08,0.144,1.25,0.016,0.024,2,0,0.008,0,0,0.008,0,0,0.008,0,0,0.008,0,0.1872,0.4544
0.12,0.2,1.5,0.08,0.136,1.4286,0.056,0.088,1.75,0,0.032,0,0,0.032,0,0,0.032,0,0.1568,0.48
0.096,-0.136,-0.41379,0.04,-0.192,-0.17241,0,-0.232,-0,0,-0.232,-0,0,-0.232,-0,0,-0.232,-0,-0.4912,1.1616
0.088,0.152,1.375,0.04,0.072,1.25,0,0.032,0,0,0.032,0,0,0.032,0,0,0.032,0,0.1296,0.4576
0,-0.392,-0,0,-0.392,-0,0,-0.392,-0,0,-0.392,-0,0,-0.392,-0,0,-0.392,-0,0.1584,0.4992
0.096,-0.464,-0.17143,0.048,-0.512,-0.085714,0,-0.56,-0,0,-0.56,-0,0,-0.56,-0,0,-0.56,-0,-0.5984,1.3792
0,-0.248,-0,0,-0.248,-0,0,-0.248,-0,0,-0.248,-0,0,-0.248,-0,0,-0.248,-0,0.1216,0.432
0.096,-0.448,-0.17647,0.048,-0.496,-0.088235,0,-0.544,-0,0,-0.544,-0,0,-0.544,-0,0,-0.544,-0,-0.376,0.7712
0,-0.672,-0,0,-0.672,-0,0,-0.672,-0,0,-0.672,-0,0,-0.672,-0,0,-0.672,-0,-0.3024,0.616
0,-0.112,-0,0,-0.112,-0,0,-0.112,-0,0,-0.112,-0,0,-0.112,-0,0,-0.112,-0,0.1536,0.4512
0.152,0.256,1.4615,0.096,0.168,1.3333,0.072,0.128,1.2857,0,0.056,0,0,0.056,0,0,0.056,0,0.1264,0.3488
0.192,-0.072,-0.72727,0.096,-0.168,-0.36364,0.072,-0.192,-0.27273,0,-0.264,-0,0,-0.264,-0,0,-0.264,-0,-0.5376,1.3392
0.08,0.136,1.4286,0,0.056,0,0,0.056,0,0,0.056,0,0,0.056,0,0,0.056,0,0.1936,0.5328
0.144,-0.12,-0.54545,0.08,-0.184,-0.30303,0.056,-0.208,-0.21212,0,-0.264,-0,0,-0.264,-0,0,-0.264,-0,-0.544,1.2864
0,-0.112,-0,0,-0.112,-0,0,-0.112,-0,0,-0.112,-0,0,-0.112,-0,0,-0.112,-0,0.1344,0.4512
0.112,0.184,1.5556,0.064,0.112,1.3333,0.032,0.056,1.3333,0,0.024,0,0,0.024,0,0,0.024,0,0.1664,0.5632
0.288,-0.248,-0.53731,0.152,-0.384,-0.28358,0.104,-0.432,-0.19403,0,-0.536,-0,0,-0.536,-0,0,-0.536,-0,-0.5456,1.2784
0.144,0.216,2,0.08,0.128,1.6667,0.048,0.072,2,0,0.024,0,0,0.024,0,0,0.024,0,0.176,0.5632
0.104,0.168,1.625,0.016,0.024,2,0,0.008,0,0,0.008,0,0,0.008,0,0,0.008,0,0.1824,0.5408
0,-0.472,-0,0,-0.472,-0,0,-0.472,-0,0,-0.472,-0,0,-0.472,-0,0,-0.472,-0,0.1744,0.4112
0.048,0.072,2,0,0.024,0,0,0.024,0,0,0.024,0,0,0.024,0,0,0.024,0,0.1872,0.504
0.104,0.176,1.4444,0.072,0.12,1.5,0.048,0.08,1.5,0,0.032,0,0,0.032,0,0,0.032,0,0.1312,0.4048
0.232,0.336,2.2308,0.104,0.176,1.4444,0.08,0.144,1.25,0,0.064,0,0,0.064,0,0,0.064,0,0.152,0.4256
0.12,0.192,1.6667,0.072,0.128,1.2857,0.048,0.08,1.5,0,0.032,0,0,0.032,0,0,0.032,0,0.1248,0.3632
0.12,0.2,1.5,0.08,0.136,1.4286,0.056,0.096,1.4,0,0.04,0,0,0.04,0,0,0.04,0,0.1424,0.4192
0.064,0.104,1.6,0,0.04,0,0,0.04,0,0,0.04,0,0,0.04,0,0,0.04,0,0.1424,0.4128
0.04,0.072,1.25,0,0.032,0,0,0.032,0,0,0.032,0,0,0.032,0,0,0.032,0,0.1408,0.4112
0.16,0.248,1.8182,0.08,0.144,1.25,0.064,0.112,1.3333,0,0.048,0,0,0.048,0,0,0.048,0,0.1248,0.32
0.112,0.184,1.5556,0.064,0.112,1.3333,0.04,0.064,1.6667,0,0.024,0,0,0.024,0,0,0.024,0,0.1184,0.3264
0.072,0,-1,0.032,-0.04,-0.44444,0,-0.072,-0,0,-0.072,-0,0,-0.072,-0,0,-0.072,-0,-0.3296,0.7744
0.088,-0.032,-0.73333,0.04,-0.08,-0.33333,0,-0.12,-0,0,-0.12,-0,0,-0.12,-0,0,-0.12,-0,-0.3296,0.7216
0.064,0.104,1.6,0,0.04,0,0,0.04,0,0,0.04,0,0,0.04,0,0,0.04,0,0.1232,0.3328
0.112,0.192,1.4,0.064,0.12,1.1429,0.04,0.072,1.25,0,0.032,0,0,0.032,0,0,0.032,0,0.1456,0.4208
0.192,0.28,2.1818,0.088,0.152,1.375,0.064,0.112,1.3333,0,0.048,0,0,0.048,0,0,0.048,0,0.144,0.424
0.056,0.096,1.4,0,0.04,0,0,0.04,0,0,0.04,0,0,0.04,0,0,0.04,0,0.1472,0.4192
0.04,0.072,1.25,0,0.032,0,0,0.032,0,0,0.032,0,0,0.032,0,0,0.032,0,0.1488,0.432
0.128,0.208,1.6,0.072,0.12,1.5,0.048,0.08,1.5,0,0.032,0,0,0.032,0,0,0.032,0,0.1456,0.4336
0.144,0.224,1.8,0.08,0.136,1.4286,0.056,0.096,1.4,0,0.04,0,0,0.04,0,0,0.04,0,0.1456,0.3696
0.064,0.112,1.3333,0.016,0.024,2,0,0.008,0,0,0.008,0,0,0.008,0,0,0.008,0,0.1168,0.3504
0.088,-0.048,-0.64706,0.04,-0.096,-0.29412,0,-0.136,-0,0,-0.136,-0,0,-0.136,-0,0,-0.136,-0,-0.3584,0.8336
0.144,0.144,Inf,0.08,0.08,Inf,0.064,0.064,Inf,0,0,NaN,0,0,NaN,0,0,NaN,-0.344,0.8048
0.128,0.208,1.6,0.08,0.136,1.4286,0.064,0.112,1.3333,0,0.048,0,0,0.048,0,0,0.048,0,0.1296,0.3728
0.088,0.152,1.375,0.048,0.088,1.2,0,0.04,0,0,0.04,0,0,0.04,0,0,0.04,0,0.1472,0.44
0.048,-0.208,-0.1875,0,-0.256,-0,0,-0.256,-0,0,-0.256,-0,0,-0.256,-0,0,-0.256,-0,-0.3504,0.824
0.08,0.136,1.4286,0.04,0.064,1.6667,0,0.024,0,0,0.024,0,0,0.024,0,0,0.024,0,0.1248,0.3664
0.096,0.16,1.5,0.048,0.08,1.5,0,0.032,0,0,0.032,0,0,0.032,0,0,0.032,0,0.1424,0.4368
0,0.032,0,0,0.032,0,0,0.032,0,0,0.032,0,0,0.032,0,0,0.032,0,0.1296,0.3456
0.104,0.176,1.4444,0.064,0.112,1.3333,0.032,0.056,1.3333,0,0.024,0,0,0.024,0,0,0.024,0,0.152,0.3904
0.112,-0.032,-0.77778,0.064,-0.08,-0.44444,0.024,-0.12,-0.16667,0,-0.144,-0,0,-0.144,-0,0,-0.144,-0,-0.416,0.9872
0.12,0.2,1.5,0.072,0.128,1.2857,0.056,0.104,1.1667,0,0.048,0,0,0.048,0,0,0.048,0,0.1536,0.4112
0.112,0.072,-2.8,0.072,0.032,-1.8,0.048,0.008,-1.2,0,-0.04,-0,0,-0.04,-0,0,-0.04,-0,-0.4256,0.9248
0.096,0.072,-4,0.056,0.032,-2.3333,0,-0.024,-0,0,-0.024,-0,0,-0.024,-0,0,-0.024,-0,-0.408,0.9696
0.08,0.144,1.25,0.04,0.072,1.25,0,0.032,0,0,0.032,0,0,0.032,0,0,0.032,0,0.16,0.4608
0.048,0.088,1.2,0,0.04,0,0,0.04,0,0,0.04,0,0,0.04,0,0,0.04,0,0.16,0.4832
0.064,0.112,1.3333,0,0.048,0,0,0.048,0,0,0.048,0,0,0.048,0,0,0.048,0,0.1616,0.5024
0.184,-0.2,-0.47917,0.096,-0.288,-0.25,0.064,-0.32,-0.16667,0,-0.384,-0,0,-0.384,-0,0,-0.384,-0,-0.5056,1.1712
0.16,0.248,1.8182,0.088,0.152,1.375,0.064,0.104,1.6,0,0.04,0,0,0.04,0,0,0.04,0,0.1296,0.3984
0.08,0.128,1.6667,0.032,0.048,2,0,0.016,0,0,0.016,0,0,0.016,0,0,0.016,0,0.1584,0.48
0.08,0.144,1.25,0.04,0.08,1,0,0.04,0,0,0.04,0,0,0.04,0,0,0.04,0,0.1632,0.5008
0.088,0.144,1.5714,0.04,0.056,2.5,0,0.016,0,0,0.016,0,0,0.016,0,0,0.016,0,0.1568,0.5392
0.096,-0.392,-0.19672,0.048,-0.44,-0.098361,0,-0.488,-0,0,-0.488,-0,0,-0.488,-0,0,-0.488,-0,-0.5056,1.1728
0.16,0.248,1.8182,0.088,0.152,1.375,0.064,0.112,1.3333,0,0.048,0,0,0.048,0,0,0.048,0,0.1248,0.4704
0.12,0.208,1.3636,0.064,0.12,1.1429,0.04,0.08,1,0,0.04,0,0,0.04,0,0,0.04,0,0.1472,0.4896
0.12,0.2,1.5,0.072,0.12,1.5,0.048,0.08,1.5,0,0.032,0,0,0.032,0,0,0.032,0,0.1568,0.4944
0.112,-0.416,-0.21212,0.064,-0.464,-0.12121,0.032,-0.496,-0.060606,0,-0.528,-0,0,-0.528,-0,0,-0.528,-0,-0.4128,0.9536
0,-0.24,-0,0,-0.24,-0,0,-0.24,-0,0,-0.24,-0,0,-0.24,-0,0,-0.24,-0,0.1344,0.4064
0.04,0.072,1.25,0,0.032,0,0,0.032,0,0,0.032,0,0,0.032,0,0,0.032,0,0.1568,0.4784
0.112,0.184,1.5556,0.072,0.12,1.5,0.048,0.08,1.5,0,0.032,0,0,0.032,0,0,0.032,0,0.1584,0.4304
0.128,-0.056,-0.69565,0.072,-0.112,-0.3913,0.048,-0.136,-0.26087,0,-0.184,-0,0,-0.184,-0,0,-0.184,-0,-0.4928,1.1504
0.04,-0.096,-0.29412,0,-0.136,-0,0,-0.136,-0,0,-0.136,-0,0,-0.136,-0,0,-0.136,-0,-0.4608,1.072
0.128,0.208,1.6,0.08,0.136,1.4286,0.056,0.096,1.4,0,0.04,0,0,0.04,0,0,0.04,0,0.1616,0.5376
0.048,0.088,1.2,0,0.04,0,0,0.04,0,0,0.04,0,0,0.04,0,0,0.04,0,0.1376,0.4176
0.072,0.136,1.125,0.024,0.048,1,0,0.024,0,0,0.024,0,0,0.024,0,0,0.024,0,0.1632,0.4416
0.144,0.232,1.6364,0.08,0.144,1.25,0.056,0.096,1.4,0,0.04,0,0,0.04,0,0,0.04,0,0.1664,0.536
0.152,0.24,1.7273,0.096,0.16,1.5,0.072,0.128,1.2857,0,0.056,0,0,0.056,0,0,0.056,0,0.1616,0.5392
0.064,0.112,1.3333,0,0.048,0,0,0.048,0,0,0.048,0,0,0.048,0,0,0.048,0,0.1376,0.416
0.128,0.208,1.6,0.08,0.136,1.4286,0.048,0.08,1.5,0,0.032,0,0,0.032,0,0,0.032,0,0.168,0.5136
0,-0.36,-0,0,-0.36,-0,0,-0.36,-0,0,-0.36,-0,0,-0.36,-0,0,-0.36,-0,-0.44,1.0144
0.224,-0.088,-0.71795,0.104,-0.208,-0.33333,0.08,-0.232,-0.25641,0,-0.312,-0,0,-0.312,-0,0,-0.312,-0,-0.4992,1.1584
0.256,-0.024,-0.91429,0.112,-0.168,-0.4,0.08,-0.2,-0.28571,0,-0.28,-0,0,-0.28,-0,0,-0.28,-0,-0.5152,1.1936
0.072,0.12,1.5,0,0.048,0,0,0.048,0,0,0.048,0,0,0.048,0,0,0.048,0,0.1408,0.4176
0,-0.312,-0,0,-0.312,-0,0,-0.312,-0,0,-0.312,-0,0,-0.312,-0,0,-0.312,-0,0.1616,0.3904
0,0.008,0,0,0.008,0,0,0.008,0,0,0.008,0,0,0.008,0,0,0.008,0,0.1344,0.4896
0.248,-0.336,-0.42466,0.112,-0.472,-0.19178,0.088,-0.496,-0.15068,0,-0.584,-0,0,-0.584,-0,0,-0.584,-0,-0.5024,1.1936
0.048,-0.416,-0.10345,0,-0.464,-0,0,-0.464,-0,0,-0.464,-0,0,-0.464,-0,0,-0.464,-0,-0.512,1.192
0,-0.448,-0,0,-0.448,-0,0,-0.448,-0,0,-0.448,-0,0,-0.448,-0,0,-0.448,-0,-0.4992,1.1712
0,-0.112,-0,0,-0.112,-0,0,-0.112,-0,0,-0.112,-0,0,-0.112,-0,0,-0.112,-0,0.1392,0.3936
0.152,0.232,1.9,0.088,0.144,1.5714,0.056,0.096,1.4,0,0.04,0,0,0.04,0,0,0.04,0,0.1648,0.5168
0.128,0.208,1.6,0.08,0.136,1.4286,0.056,0.096,1.4,0,0.04,0,0,0.04,0,0,0.04,0,0.1632,0.5168
0.08,0.128,1.6667,0.032,0.048,2,0,0.016,0,0,0.016,0,0,0.016,0,0,0.016,0,0.1744,0.5168
0.056,0.104,1.1667,0,0.048,0,0,0.048,0,0,0.048,0,0,0.048,0,0,0.048,0,0.1392,0.4064
0,-0.392,-0,0,-0.392,-0,0,-0.392,-0,0,-0.392,-0,0,-0.392,-0,0,-0.392,-0,0.1264,0.4656
0.088,0.152,1.375,0.048,0.08,1.5,0,0.032,0,0,0.032,0,0,0.032,0,0,0.032,0,0.1248,0.4064
0.096,-0.056,-0.63158,0.064,-0.088,-0.42105,0.032,-0.12,-0.21053,0,-0.152,-0,0,-0.152,-0,0,-0.152,-0,-0.4144,0.9776
0.096,0.16,1.5,0.056,0.096,1.4,0.016,0.024,2,0,0.008,0,0,0.008,0,0,0.008,0,0.1312,0.4512
0,-0.432,-0,0,-0.432,-0,0,-0.432,-0,0,-0.432,-0,0,-0.432,-0,0,-0.432,-0,-0.4048,0.9472
0.112,-0.312,-0.26415,0.064,-0.36,-0.15094,0.04,-0.384,-0.09434,0,-0.424,-0,0,-0.424,-0,0,-0.424,-0,-0.4032,0.9488
0.112,0.192,1.4,0.064,0.12,1.1429,0.024,0.04,1.5,0,0.016,0,0,0.016,0,0,0.016,0,0.1632,0.52
0,0.312,0,0,0.312,0,0,0.312,0,0,0.312,0,0,0.312,0,0,0.312,0,0.1648,0.376
0,-0.312,-0,0,-0.312,-0,0,-0.312,-0,0,-0.312,-0,0,-0.312,-0,0,-0.312,-0,-0.4832,1.0896
0.056,0.096,1.4,0,0.04,0,0,0.04,0,0,0.04,0,0,0.04,0,0,0.04,0,0.1312,0.4016
0,0.24,0,0,0.24,0,0,0.24,0,0,0.24,0,0,0.24,0,0,0.24,0,0.1536,0.1952
0.072,0.024,-1.5,0.016,-0.032,-0.33333,0,-0.048,-0,0,-0.048,-0,0,-0.048,-0,0,-0.048,-0,-0.5424,1.248
0,-0.088,-0,0,-0.088,-0,0,-0.088,-0,0,-0.088,-0,0,-0.088,-0,0,-0.088,-0,-0.4096,0.968
0,-0.072,-0,0,-0.072,-0,0,-0.072,-0,0,-0.072,-0,0,-0.072,-0,0,-0.072,-0,0.1536,0.4288
0.12,0.2,1.5,0.072,0.128,1.2857,0.048,0.08,1.5,0,0.032,0,0,0.032,0,0,0.032,0,0.0816,0.2048
0.144,0.24,1.5,0.096,0.168,1.3333,0.072,0.128,1.2857,0,0.056,0,0,0.056,0,0,0.056,0,0.168,0.5248
0,-0.064,-0,0,-0.064,-0,0,-0.064,-0,0,-0.064,-0,0,-0.064,-0,0,-0.064,-0,-0.4,0.9504
0.096,0.16,1.5,0.04,0.072,1.25,0,0.032,0,0,0.032,0,0,0.032,0,0,0.032,0,0.1328,0.3808
0.04,0.072,1.25,0,0.032,0,0,0.032,0,0,0.032,0,0,0.032,0,0,0.032,0,0.1376,0.3136
0.128,0.208,1.6,0.08,0.136,1.4286,0.048,0.088,1.2,0,0.04,0,0,0.04,0,0,0.04,0,0.128,0.4
0.08,0.128,1.6667,0,0.048,0,0,0.048,0,0,0.048,0,0,0.048,0,0,0.048,0,0.0624,0.2224
0,0.184,0,0,0.184,0,0,0.184,0,0,0.184,0,0,0.184,0,0,0.184,0,0.1392,0.3904
0.056,0.168,0.5,0,0.112,0,0,0.112,0,0,0.112,0,0,0.112,0,0,0.112,0,-0.272,0.5968
0.048,0.112,0.75,0.304,0.368,4.75,0.128,0.192,2,0.072,0.136,1.125,0,0.064,0,0,0.064,0,-0.2992,0.7664
0,0.128,0,0,0.128,0,0,0.128,0,0,0.128,0,0,0.128,0,0,0.128,0,0.0832,0.24
0.104,0.152,2.1667,0.04,0.088,0.83333,0,0.048,0,0,0.048,0,0,0.048,0,0,0.048,0,-0.3712,0.8832
0.096,0.16,1.5,0.024,0.032,3,0,0.008,0,0,0.008,0,0,0.008,0,0,0.008,0,0.16,0.4784
0.056,0.096,1.4,0,0.04,0,0,0.04,0,0,0.04,0,0,0.04,0,0,0.04,0,0.16,0.5088
0.136,0.208,1.8889,0.072,0.12,1.5,0.04,0.064,1.6667,0,0.024,0,0,0.024,0,0,0.024,0,0.1616,0.5088
0.16,0.24,2,0.072,0.128,1.2857,0.048,0.088,1.2,0,0.04,0,0,0.04,0,0,0.04,0,0.16,0.5104
0.104,-0.064,-0.61905,0.064,-0.104,-0.38095,0.04,-0.128,-0.2381,0,-0.168,-0,0,-0.168,-0,0,-0.168,-0,-0.392,0.92
0.064,-0.056,-0.53333,0,-0.12,-0,0,-0.12,-0,0,-0.12,-0,0,-0.12,-0,0,-0.12,-0,-0.5152,1.1184
0.104,0.16,1.8571,0.064,0.096,2,0.032,0.048,2,0,0.016,0,0,0.016,0,0,0.016,0,0.1568,0.5056
0.088,0.152,1.375,0.04,0.072,1.25,0,0.032,0,0,0.032,0,0,0.032,0,0,0.032,0,0.1568,0.416
0,-0.104,-0,0,-0.104,-0,0,-0.104,-0,0,-0.104,-0,0,-0.104,-0,0,-0.104,-0,0.1344,0.4
0.216,0.304,2.4545,0.112,0.176,1.75,0.08,0.128,1.6667,0,0.048,0,0,0.048,0,0,0.048,0,0.1664,0.4624
0.048,0.072,2,0,0.024,0,0,0.024,0,0,0.024,0,0,0.024,0,0,0.024,0,0.144,0.4624
0.08,0.128,1.6667,0.024,0.032,3,0,0.008,0,0,0.008,0,0,0.008,0,0,0.008,0,0.1552,0.4816
0.136,0.024,-1.2143,0.064,-0.048,-0.57143,0,-0.112,-0,0,-0.112,-0,0,-0.112,-0,0,-0.112,-0,-0.2656,0.6464
0.12,-0.128,-0.48387,0.072,-0.176,-0.29032,0.032,-0.216,-0.12903,0,-0.248,-0,0,-0.248,-0,0,-0.248,-0,-0.2752,0.6944
0,0.056,0,0.136,0.192,2.4286,0.072,0.128,1.2857,0,0.056,0,0,0.056,0,0,0.056,0,0.1104,0.3376
0.16,0.16,Inf,0.064,0.064,Inf,0,0,NaN,0,0,NaN,0,0,NaN,0,0,NaN,-0.2656,0.6624
0.056,0.064,7,0,0.008,0,0,0.008,0,0,0.008,0,0,0.008,0,0,0.008,0,0.128,0.4496
0.048,0.088,1.2,0,0.04,0,0,0.04,0,0,0.04,0,0,0.04,0,0,0.04,0,0.1376,0.3568
0.112,0.192,1.4,0.064,0.12,1.1429,0.04,0.08,1,0,0.04,0,0,0.04,0,0,0.04,0,0.168,0.4816
0.12,-0.24,-0.33333,0,-0.36,-0,0,-0.36,-0,0,-0.36,-0,0,-0.36,-0,0,-0.36,-0,-0.3856,0.8208
0.088,0.144,1.5714,0.056,0.088,1.75,0.024,0.032,3,0,0.008,0,0,0.008,0,0,0.008,0,0.0992,0.2704
0,0.032,0,0,0.032,0,0,0.032,0,0,0.032,0,0,0.032,0,0,0.032,0,0.1056,0.312
0.104,0.104,Inf,0.064,0.064,Inf,0.032,0.032,Inf,0,0,NaN,0,0,NaN,0,0,NaN,-0.304,0.7152
0.112,0.088,-4.6667,0.08,0.056,-3.3333,0.056,0.032,-2.3333,0,-0.024,-0,0,-0.024,-0,0,-0.024,-0,-0.2144,0.5488
0.04,0.072,1.25,0,0.032,0,0,0.032,0,0,0.032,0,0,0.032,0,0,0.032,0,0.1328,0.2928
0.072,-0.016,-0.81818,0.024,-0.064,-0.27273,0,-0.088,-0,0,-0.088,-0,0,-0.088,-0,0,-0.088,-0,-0.3808,0.8944
0.128,0.2,1.7778,0.08,0.128,1.6667,0.056,0.088,1.75,0,0.032,0,0,0.032,0,0,0.032,0,0.12,0.392
0.08,0.144,1.25,0,0.064,0,0,0.064,0,0,0.064,0,0,0.064,0,0,0.064,0,0.1344,0.3808
0.088,0.128,2.2,0.048,0.088,1.2,0.016,0.056,0.4,0,0.04,0,0,0.04,0,0,0.04,0,-0.3824,0.896
0.032,0.048,2,0,0.016,0,0,0.016,0,0,0.016,0,0,0.016,0,0,0.016,0,0.1136,0.2672
0.248,0.032,-1.1481,0.088,-0.128,-0.40741,0.064,-0.152,-0.2963,0,-0.216,-0,0,-0.216,-0,0,-0.216,-0,-0.3248,0.7712
0.048,0.08,1.5,0,0.032,0,0,0.032,0,0,0.032,0,0,0.032,0,0,0.032,0,0.1328,0.3872
0.088,-0.152,-0.36667,0.048,-0.192,-0.2,0,-0.24,-0,0,-0.24,-0,0,-0.24,-0,0,-0.24,-0,-0.3888,0.9104
0.064,0.112,1.3333,0.016,0.032,1,0,0.016,0,0,0.016,0,0,0.016,0,0,0.016,0,0.112,0.2768
0.072,0.112,1.8,0,0.04,0,0,0.04,0,0,0.04,0,0,0.04,0,0,0.04,0,0.0976,0.2256
0.104,0.176,1.4444,0.064,0.112,1.3333,0.04,0.072,1.25,0,0.032,0,0,0.032,0,0,0.032,0,0.1024,0.2848
0,0.304,0,0,0.304,0,0,0.304,0,0,0.304,0,0,0.304,0,0,0.304,0,0.1216,0.2656
0.168,0.232,2.625,0.04,0.064,1.6667,0,0.024,0,0,0.024,0,0,0.024,0,0,0.024,0,0.1072,0.2832
0.072,0.12,1.5,0.016,0.024,2,0,0.008,0,0,0.008,0,0,0.008,0,0,0.008,0,0.1168,0.2672
0.008,0.016,1,0,0.008,0,0,0.008,0,0,0.008,0,0,0.008,0,0,0.008,0,0.0928,0.1808
0.128,0.176,2.6667,0,0.048,0,0,0.048,0,0,0.048,0,0,0.048,0,0,0.048,0,0.0816,0.2912
0.04,0.056,2.5,0,0.016,0,0,0.016,0,0,0.016,0,0,0.016,0,0,0.016,0,0.1344,0.3872
0.032,0.048,2,0,0.016,0,0,0.016,0,0,0.016,0,0,0.016,0,0,0.016,0,0.1088,0.2784
0.056,0.096,1.4,0,0.04,0,0,0.04,0,0,0.04,0,0,0.04,0,0,0.04,0,0.1232,0.3776
0,-0.144,-0,0,-0.144,-0,0,-0.144,-0,0,-0.144,-0,0,-0.144,-0,0,-0.144,-0,0.1584,0.368
0.088,0.136,1.8333,0,0.048,0,0,0.048,0,0,0.048,0,0,0.048,0,0,0.048,0,0.152,0.3536
0.216,0.304,2.4545,0.096,0.152,1.7143,0.056,0.096,1.4,0,0.04,0,0,0.04,0,0,0.04,0,0.1536,0.472
0.176,0.368,0.91667,0.176,0.368,0.91667,0.176,0.304,1.375,0.192,0.272,2.4,0,0.08,0,0,0.08,0,0.16,0.4144
0.056,-0.224,-0.2,0,-0.28,-0,0,-0.28,-0,0,-0.28,-0,0,-0.28,-0,0,-0.28,-0,-0.3792,0.8864
0.248,0.336,2.8182,0.12,0.184,1.875,0.088,0.136,1.8333,0,0.048,0,0,0.048,0,0,0.048,0,0.1248,0.3792
0.056,0.104,1.1667,0,0.048,0,0,0.048,0,0,0.048,0,0,0.048,0,0,0.048,0,0.1264,0.3792
0.08,0.136,1.4286,0.032,0.056,1.3333,0,0.024,0,0,0.024,0,0,0.024,0,0,0.024,0,0.1568,0.4736
0.184,0.272,2.0909,0.088,0.144,1.5714,0.048,0.088,1.2,0,0.04,0,0,0.04,0,0,0.04,0,0.1312,0.3824
0.152,0.24,1.7273,0.08,0.136,1.4286,0.048,0.088,1.2,0,0.04,0,0,0.04,0,0,0.04,0,0.1584,0.4768
0.136,-0.296,-0.31481,0.08,-0.352,-0.18519,0.048,-0.384,-0.11111,0,-0.432,-0,0,-0.432,-0,0,-0.432,-0,-0.4784,1.1168
0,-0.392,-0,0,-0.392,-0,0,-0.392,-0,0,-0.392,-0,0,-0.392,-0,0,-0.392,-0,-0.4784,1.1184
0.128,0.2,1.7778,0.072,0.12,1.5,0.032,0.056,1.3333,0,0.024,0,0,0.024,0,0,0.024,0,0.1584,0.4736
0.072,0.128,1.2857,0,0.056,0,0,0.056,0,0,0.056,0,0,0.056,0,0,0.056,0,0.1744,0.464
0.16,-0.232,-0.40816,0.088,-0.304,-0.22449,0.056,-0.336,-0.14286,0,-0.392,-0,0,-0.392,-0,0,-0.392,-0,-0.4752,1.1248
0.2,-0.208,-0.4902,0.088,-0.32,-0.21569,0.056,-0.352,-0.13725,0,-0.408,-0,0,-0.408,-0,0,-0.408,-0,-0.4864,1.1232
0,-0.44,-0,0,-0.44,-0,0,-0.44,-0,0,-0.44,-0,0,-0.44,-0,0,-0.44,-0,0.096,0.3248
0.08,0.128,1.6667,0.032,0.048,2,0,0.016,0,0,0.016,0,0,0.016,0,0,0.016,0,0.1264,0.4112
0.264,0.12,-1.8333,0.112,-0.032,-0.77778,0.08,-0.064,-0.55556,0.016,-0.128,-0.11111,0,-0.144,-0,0,-0.144,-0,-0.352,0.8848
0.056,-0.12,-0.31818,0,-0.176,-0,0,-0.176,-0,0,-0.176,-0,0,-0.176,-0,0,-0.176,-0,-0.2592,0.6704
0,0.04,0,0,0.04,0,0,0.04,0,0,0.04,0,0,0.04,0,0,0.04,0,0.1264,0.3936
0,-0.04,-0,0,-0.04,-0,0,-0.04,-0,0,-0.04,-0,0,-0.04,-0,0,-0.04,-0,0.1312,0.3968
0,0.352,0,0,0.352,0,0,0.352,0,0,0.352,0,0,0.352,0,0,0.352,0,0.1264,0.3856
0,-0.08,-0,0,-0.08,-0,0,-0.08,-0,0,-0.08,-0,0,-0.08,-0,0,-0.08,-0,0.1232,0.4288
0.056,0.104,1.1667,0,0.048,0,0,0.048,0,0,0.048,0,0,0.048,0,0,0.048,0,0.1216,0.3984
0.064,0.112,1.3333,0,0.048,0,0,0.048,0,0,0.048,0,0,0.048,0,0,0.048,0,0.1472,0.408
0.12,0.192,1.6667,0.064,0.112,1.3333,0.04,0.072,1.25,0,0.032,0,0,0.032,0,0,0.032,0,0.1328,0.368
0,-0.176,-0,0,-0.176,-0,0,-0.176,-0,0,-0.176,-0,0,-0.176,-0,0,-0.176,-0,0.1184,0.2592
0.072,0.128,1.2857,0.024,0.048,1,0,0.024,0,0,0.024,0,0,0.024,0,0,0.024,0,0.1072,0.2848
0.096,0.152,1.7143,0.056,0.088,1.75,0.016,0.016,Inf,0,0,NaN,0,0,NaN,0,0,NaN,0.1312,0.368
0.096,0.152,1.7143,0.056,0.088,1.75,0.032,0.048,2,0,0.016,0,0,0.016,0,0,0.016,0,0.1264,0.3824
0.112,0.176,1.75,0.064,0.096,2,0,0.032,0,0,0.032,0,0,0.032,0,0,0.032,0,0.1248,0.4464
0.096,0.16,1.5,0.04,0.072,1.25,0,0.032,0,0,0.032,0,0,0.032,0,0,0.032,0,0.1232,0.2816
0,0.216,0,0,0.216,0,0,0.216,0,0,0.216,0,0,0.216,0,0,0.216,0,0.1296,0.384
0.272,0.416,1.8889,0.24,0.336,2.5,0.136,0.216,1.7,0.048,0.072,2,0,0.024,0,0,0.024,0,0.128,0.3776
0,0.304,0,0,0.304,0,0,0.304,0,0,0.304,0,0,0.304,0,0,0.304,0,0.1328,0.3264
0.168,0.248,2.1,0.088,0.144,1.5714,0.056,0.096,1.4,0,0.04,0,0,0.04,0,0,0.04,0,0.1536,0.5008
0.08,0.128,1.6667,0,0.048,0,0,0.048,0,0,0.048,0,0,0.048,0,0,0.048,0,0.152,0.4992
0.144,-0.088,-0.62069,0.072,-0.16,-0.31034,0.048,-0.184,-0.2069,0,-0.232,-0,0,-0.232,-0,0,-0.232,-0,-0.4,0.9232
0.12,-0.048,-0.71429,0.072,-0.096,-0.42857,0.056,-0.112,-0.33333,0,-0.168,-0,0,-0.168,-0,0,-0.168,-0,-0.2928,0.7536
0.064,0.112,1.3333,0,0.048,0,0,0.048,0,0,0.048,0,0,0.048,0,0,0.048,0,0.1536,0.4272
0.08,0.136,1.4286,0.032,0.056,1.3333,0,0.024,0,0,0.024,0,0,0.024,0,0,0.024,0,0.1296,0.3952
0.232,-0.312,-0.42647,0.088,-0.456,-0.16176,0.064,-0.48,-0.11765,0,-0.544,-0,0,-0.544,-0,0,-0.544,-0,-0.3904,0.8432
0.128,0.208,1.6,0.08,0.136,1.4286,0.056,0.096,1.4,0,0.04,0,0,0.04,0,0,0.04,0,0.12,0.3968
0.096,0.16,1.5,0.048,0.088,1.2,0,0.04,0,0,0.04,0,0,0.04,0,0,0.04,0,0.128,0.3856
0.104,0.168,1.625,0.056,0.096,1.4,0.032,0.056,1.3333,0,0.024,0,0,0.024,0,0,0.024,0,0.1392,0.3792
0.168,0.312,1.1667,0.248,0.352,2.3846,0.072,0.12,1.5,0,0.048,0,0,0.048,0,0,0.048,0,0.1296,0.4912
0.296,0.048,-1.1935,0.112,-0.136,-0.45161,0.08,-0.168,-0.32258,0,-0.248,-0,0,-0.248,-0,0,-0.248,-0,-0.392,0.912
0.096,0.16,1.5,0.056,0.096,1.4,0.024,0.04,1.5,0,0.016,0,0,0.016,0,0,0.016,0,0.1312,0.3856
0.104,-0.36,-0.22414,0.072,-0.392,-0.15517,0.048,-0.416,-0.10345,0,-0.464,-0,0,-0.464,-0,0,-0.464,-0,-0.2864,0.6416
0.136,0.216,1.7,0.08,0.136,1.4286,0.056,0.088,1.75,0,0.032,0,0,0.032,0,0,0.032,0,0.1328,0.3824
0.056,0.08,2.3333,0,0.024,0,0,0.024,0,0,0.024,0,0,0.024,0,0,0.024,0,0.1568,0.488
0.088,-0.264,-0.25,0.048,-0.304,-0.13636,0,-0.352,-0,0,-0.352,-0,0,-0.352,-0,0,-0.352,-0,-0.3184,0.7648
0.064,0.104,1.6,0,0.04,0,0,0.04,0,0,0.04,0,0,0.04,0,0,0.04,0,0.1264,0.3888
0.128,0.216,1.4545,0.08,0.136,1.4286,0.048,0.08,1.5,0,0.032,0,0,0.032,0,0,0.032,0,0.1552,0.5072
0.096,-0.4,-0.19355,0.056,-0.44,-0.1129,0.024,-0.472,-0.048387,0,-0.496,-0,0,-0.496,-0,0,-0.496,-0,-0.4448,0.9808
0.128,0.208,1.6,0.088,0.144,1.5714,0.064,0.104,1.6,0,0.04,0,0,0.04,0,0,0.04,0,0.1296,0.3936
0.064,0.104,1.6,0,0.04,0,0,0.04,0,0,0.04,0,0,0.04,0,0,0.04,0,0.1312,0.4416
0.088,0.152,1.375,0.048,0.08,1.5,0,0.032,0,0,0.032,0,0,0.032,0,0,0.032,0,0.1376,0.44
0.048,-0.056,-0.46154,0,-0.104,-0,0,-0.104,-0,0,-0.104,-0,0,-0.104,-0,0,-0.104,-0,-0.44,0.9584
0.08,0.136,1.4286,0.024,0.032,3,0,0.008,0,0,0.008,0,0,0.008,0,0,0.008,0,0.1728,0.5536
0.064,-0.608,-0.095238,0,-0.672,-0,0,-0.672,-0,0,-0.672,-0,0,-0.672,-0,0,-0.672,-0,-0.5616,1.28
0.064,0.112,1.3333,0,0.048,0,0,0.048,0,0,0.048,0,0,0.048,0,0,0.048,0,0.1376,0.4336
0.088,0.152,1.375,0.04,0.064,1.6667,0,0.024,0,0,0.024,0,0,0.024,0,0,0.024,0,0.1664,0.5552
0.096,0.152,1.7143,0.048,0.08,1.5,0,0.032,0,0,0.032,0,0,0.032,0,0,0.032,0,0.1376,0.448
0.064,0.104,1.6,0,0.04,0,0,0.04,0,0,0.04,0,0,0.04,0,0,0.04,0,0.1808,0.5456
0.256,0.448,1.3333,0.336,0.464,2.625,0.16,0.264,1.5385,0,0.104,0,0,0.104,0,0,0.104,0,0.2,0.5328
0.12,-0.032,-0.78947,0.08,-0.072,-0.52632,0.048,-0.104,-0.31579,0,-0.152,-0,0,-0.152,-0,0,-0.152,-0,-0.5648,1.296
0,-0.152,-0,0,-0.152,-0,0,-0.152,-0,0,-0.152,-0,0,-0.152,-0,0,-0.152,-0,0.1312,0.3936
0.088,0.16,1.2222,0,0.072,0,0,0.072,0,0,0.072,0,0,0.072,0,0,0.072,0,0.1984,0.5312
0.136,0.208,1.8889,0.08,0.128,1.6667,0.04,0.056,2.5,0,0.016,0,0,0.016,0,0,0.016,0,0.1712,0.4864
0.152,0.256,1.4615,0.088,0.16,1.2222,0.048,0.088,1.2,0,0.04,0,0,0.04,0,0,0.04,0,0.1744,0.4128
0.096,0.168,1.3333,0.04,0.072,1.25,0,0.032,0,0,0.032,0,0,0.032,0,0,0.032,0,0.1824,0.5808
0,-0.16,-0,0,-0.16,-0,0,-0.16,-0,0,-0.16,-0,0,-0.16,-0,0,-0.16,-0,0.1488,0.4544
0.072,-0.528,-0.12,0,-0.6,-0,0,-0.6,-0,0,-0.6,-0,0,-0.6,-0,0,-0.6,-0,-0.5712,1.32
0.28,-0.272,-0.50725,0.112,-0.44,-0.2029,0.088,-0.464,-0.15942,0.024,-0.528,-0.043478,0,-0.552,-0,0,-0.552,-0,-0.4576,1.128
0.112,0.184,1.5556,0.064,0.112,1.3333,0.032,0.048,2,0,0.016,0,0,0.016,0,0,0.016,0,0.1648,0.5248
0.104,0.168,1.625,0.048,0.08,1.5,0,0.032,0,0,0.032,0,0,0.032,0,0,0.032,0,0.1616,0.5856
0.088,-0.376,-0.18966,0.032,-0.432,-0.068966,0,-0.464,-0,0,-0.464,-0,0,-0.464,-0,0,-0.464,-0,-0.5104,1.112
0.096,0.16,1.5,0.048,0.08,1.5,0,0.032,0,0,0.032,0,0,0.032,0,0,0.032,0,0.1696,0.5888
0.096,-0.24,-0.28571,0.056,-0.28,-0.16667,0,-0.336,-0,0,-0.336,-0,0,-0.336,-0,0,-0.336,-0,-0.5792,1.3248
0.064,0.112,1.3333,0,0.048,0,0,0.048,0,0,0.048,0,0,0.048,0,0,0.048,0,0.1328,0.4576
0.08,0.136,1.4286,0.016,0.032,1,0,0.016,0,0,0.016,0,0,0.016,0,0,0.016,0,0.16,0.5984
0.104,-0.192,-0.35135,0.064,-0.232,-0.21622,0.024,-0.272,-0.081081,0,-0.296,-0,0,-0.296,-0,0,-0.296,-0,-0.5936,1.3504
0.072,0.112,1.8,0,0.04,0,0,0.04,0,0,0.04,0,0,0.04,0,0,0.04,0,0.1552,0.48
0.056,0.088,1.75,0,0.032,0,0,0.032,0,0,0.032,0,0,0.032,0,0,0.032,0,0.1616,0.5936
0.04,0.072,1.25,0,0.032,0,0,0.032,0,0,0.032,0,0,0.032,0,0,0.032,0,0.0992,0.2944
0.08,0,-1,0.008,-0.072,-0.1,0,-0.08,-0,0,-0.08,-0,0,-0.08,-0,0,-0.08,-0,-0.5968,1.36
0.064,0.104,1.6,0,0.04,0,0,0.04,0,0,0.04,0,0,0.04,0,0,0.04,0,0.1616,0.5904
0.104,0.168,1.625,0.064,0.096,2,0.024,0.032,3,0,0.008,0,0,0.008,0,0,0.008,0,0.1056,0.376
0.096,0.192,1,0.056,0.112,1,0.024,0.04,1.5,0,0.016,0,0,0.016,0,0,0.016,0,0.1424,0.464
0.104,0.16,1.8571,0.064,0.096,2,0.024,0.024,Inf,0,0,NaN,0,0,NaN,0,0,NaN,0.1264,0.5024
0.112,0.024,-1.2727,0.064,-0.024,-0.72727,0.032,-0.056,-0.36364,0,-0.088,-0,0,-0.088,-0,0,-0.088,-0,-0.6032,1.368
0.104,0.16,1.8571,0.056,0.08,2.3333,0,0.024,0,0,0.024,0,0,0.024,0,0,0.024,0,0.1328,0.4944
0.096,0.16,1.5,0.048,0.08,1.5,0,0.032,0,0,0.032,0,0,0.032,0,0,0.032,0,0.1376,0.48
0.064,0.104,1.6,0,0.04,0,0,0.04,0,0,0.04,0,0,0.04,0,0,0.04,0,0.1328,0.5648
0.096,-0.416,-0.1875,0.048,-0.464,-0.09375,0,-0.512,-0,0,-0.512,-0,0,-0.512,-0,0,-0.512,-0,-0.6048,1.3776
0.064,0.112,1.3333,0,0.048,0,0,0.048,0,0,0.048,0,0,0.048,0,0,0.048,0,0.1632,0.5984
0.096,-0.344,-0.21818,0.048,-0.392,-0.10909,0,-0.44,-0,0,-0.44,-0,0,-0.44,-0,0,-0.44,-0,-0.4768,1.088
0.248,-0.288,-0.46269,0.08,-0.456,-0.14925,0.056,-0.48,-0.10448,0,-0.536,-0,0,-0.536,-0,0,-0.536,-0,-0.5536,1.2592
0.056,0.096,1.4,0,0.04,0,0,0.04,0,0,0.04,0,0,0.04,0,0,0.04,0,0.1488,0.2464
0.104,0.04,-1.625,0.104,0.04,-1.625,0.104,0.04,-1.625,0.096,0.032,-1.5,0.024,-0.04,-0.375,0,-0.064,-0,-0.1344,0.3968
0.376,0.2,-2.1364,0.192,0.016,-1.0909,0.104,-0.072,-0.59091,0.032,-0.144,-0.18182,0,-0.176,-0,0,-0.176,-0,-0.4336,0.9136
0.104,0.168,1.625,0.072,0.112,1.8,0.048,0.08,1.5,0,0.032,0,0,0.032,0,0,0.032,0,0.096,0.1936
0.12,0.112,-15,0.056,0.048,-7,0,-0.008,-0,0,-0.008,-0,0,-0.008,-0,0,-0.008,-0,-0.2992,0.6624
0.328,0.424,3.4167,0.128,0.192,2,0.096,0.144,2,0.032,0.04,4,0,0.008,0,0,0.008,0,0.12,0.36
0.152,0.256,1.4615,0.12,0.192,1.6667,0.088,0.152,1.375,0,0.064,0,0,0.064,0,0,0.064,0,0.1616,0.4464
0.072,-0.096,-0.42857,0,-0.168,-0,0,-0.168,-0,0,-0.168,-0,0,-0.168,-0,0,-0.168,-0,-0.3872,0.8944
0,-0.016,-0,0,-0.016,-0,0,-0.016,-0,0,-0.016,-0,0,-0.016,-0,0,-0.016,-0,0.088,0.2304
0.08,0.128,1.6667,0,0.048,0,0,0.048,0,0,0.048,0,0,0.048,0,0,0.048,0,0.1264,0.408
0.104,-0.496,-0.17333,0.072,-0.528,-0.12,0.048,-0.552,-0.08,0,-0.6,-0,0,-0.6,-0,0,-0.6,-0,-0.24,0.5776
0.024,0.04,1.5,0,0.016,0,0,0.016,0,0,0.016,0,0,0.016,0,0,0.016,0,0.112,0.2832
0.064,-0.112,-0.36364,0,-0.176,-0,0,-0.176,-0,0,-0.176,-0,0,-0.176,-0,0,-0.176,-0,-0.5136,1.1776
0.072,0.128,1.2857,0.016,0.024,2,0,0.008,0,0,0.008,0,0,0.008,0,0,0.008,0,0.1536,0.5104
0.056,0.096,1.4,0,0.04,0,0,0.04,0,0,0.04,0,0,0.04,0,0,0.04,0,0.128,0.336
0.088,0.144,1.5714,0.048,0.08,1.5,0,0.032,0,0,0.032,0,0,0.032,0,0,0.032,0,0.136,0.3888
0.096,0.16,1.5,0.056,0.088,1.75,0,0.032,0,0,0.032,0,0,0.032,0,0,0.032,0,0.1536,0.528
0.096,-0.04,-0.70588,0.048,-0.088,-0.35294,0,-0.136,-0,0,-0.136,-0,0,-0.136,-0,0,-0.136,-0,-0.4496,1.0384
0.096,0.168,1.3333,0.056,0.096,1.4,0,0.04,0,0,0.04,0,0,0.04,0,0,0.04,0,0.1392,0.4688
0.072,0.072,Inf,0.024,0.024,Inf,0,0,NaN,0,0,NaN,0,0,NaN,0,0,NaN,0.1184,0.4848
0.096,0.024,-1.3333,0.032,-0.04,-0.44444,0,-0.072,-0,0,-0.072,-0,0,-0.072,-0,0,-0.072,-0,-0.4912,1.1504
0,0.032,0,0,0.032,0,0,0.032,0,0,0.032,0,0,0.032,0,0,0.032,0,-0.3696,0.8784
0.008,0.008,Inf,0,0,NaN,0,0,NaN,0,0,NaN,0,0,NaN,0,0,NaN,0.1472,0.4432
0.048,0.08,1.5,0,0.032,0,0,0.032,0,0,0.032,0,0,0.032,0,0,0.032,0,0.1552,0.3888
0.576,0.032,-1.0588,0.392,-0.152,-0.72059,0.32,-0.224,-0.58824,0.168,-0.376,-0.30882,0.04,-0.504,-0.073529,0,-0.544,-0,-0.3056,0.7584
0.128,-0.44,-0.22535,0.08,-0.488,-0.14085,0.048,-0.52,-0.084507,0,-0.568,-0,0,-0.568,-0,0,-0.568,-0,-0.2928,0.6192
0.072,0.112,1.8,0,0.04,0,0,0.04,0,0,0.04,0,0,0.04,0,0,0.04,0,0.1296,0.4
0.12,0.008,-1.0714,0.072,-0.04,-0.64286,0.04,-0.072,-0.35714,0,-0.112,-0,0,-0.112,-0,0,-0.112,-0,-0.4576,1.0256
0,-0.2,-0,0,-0.2,-0,0,-0.2,-0,0,-0.2,-0,0,-0.2,-0,0,-0.2,-0,-0.3552,0.8832
0.496,0.304,-2.5833,0.136,-0.056,-0.70833,0.096,-0.096,-0.5,0.032,-0.16,-0.16667,0,-0.192,-0,0,-0.192,-0,-0.4992,1.1072
0.224,0.312,2.5455,0.096,0.152,1.7143,0.072,0.112,1.8,0,0.04,0,0,0.04,0,0,0.04,0,0.1504,0.496
0.04,0.04,Inf,0.144,0.144,Inf,0.104,0.104,Inf,0.024,0.024,Inf,0,0,NaN,0,0,NaN,-0.488,1.1328
0.04,0.04,Inf,0,0,NaN,0,0,NaN,0,0,NaN,0,0,NaN,0,0,NaN,-0.2784,0.656
-0.048,0.04,-0.54545,0.208,0.296,2.3636,0.16,0.248,1.8182,0,0.088,0,0,0.088,0,0,0.088,0,0.1408,0.3904
0.12,0.208,1.3636,0.064,0.12,1.1429,0.024,0.032,3,0,0.008,0,0,0.008,0,0,0.008,0,0.1888,0.6032
0.12,0.2,1.5,0.072,0.12,1.5,0.024,0.04,1.5,0,0.016,0,0,0.016,0,0,0.016,0,0.1664,0.5376
0,0.24,0,0,0.24,0,0,0.24,0,0,0.24,0,0,0.24,0,0,0.24,0,0.136,0.4048
0.08,0.136,1.4286,0,0.056,0,0,0.056,0,0,0.056,0,0,0.056,0,0,0.056,0,0.1696,0.5184
0.112,0.2,1.2727,0.056,0.096,1.4,0,0.04,0,0,0.04,0,0,0.04,0,0,0.04,0,0.1584,0.4336
0.128,-0.52,-0.19753,0.032,-0.616,-0.049383,0,-0.648,-0,0,-0.648,-0,0,-0.648,-0,0,-0.648,-0,-0.4704,1.1088
0.128,-0.576,-0.18182,0.064,-0.64,-0.090909,0.024,-0.68,-0.034091,0,-0.704,-0,0,-0.704,-0,0,-0.704,-0,-0.4784,1.1408
0,-0.352,-0,0,-0.352,-0,0,-0.352,-0,0,-0.352,-0,0,-0.352,-0,0,-0.352,-0,0.0816,0.2544
0.104,0.168,1.625,0.04,0.056,2.5,0,0.016,0,0,0.016,0,0,0.016,0,0,0.016,0,0.1088,0.3584
0,0,NaN,0,0,NaN,0,0,NaN,0,0,NaN,0,0,NaN,0,0,NaN,0.2272,0.4976
0,-0.04,-0,0,-0.04,-0,0,-0.04,-0,0,-0.04,-0,0,-0.04,-0,0,-0.04,-0,0.1168,0.3664
0,-0.048,-0,0,-0.048,-0,0,-0.048,-0,0,-0.048,-0,0,-0.048,-0,0,-0.048,-0,0.1312,0.344
0.24,-0.032,-0.88235,0.112,-0.16,-0.41176,0.072,-0.2,-0.26471,0,-0.272,-0,0,-0.272,-0,0,-0.272,-0,-0.5808,1.1968
0.144,0.224,1.8,0.088,0.144,1.5714,0.032,0.056,1.3333,0,0.024,0,0,0.024,0,0,0.024,0,0.152,0.3184
0.064,0.12,1.1429,0,0.056,0,0,0.056,0,0,0.056,0,0,0.056,0,0,0.056,0,0.1408,0.336
0.176,0.24,2.75,0.112,0.16,2.3333,0.072,0.104,2.25,0,0.032,0,0,0.032,0,0,0.032,0,0.1088,0.3536
0.376,-0.16,-0.70149,0.208,-0.328,-0.38806,0.136,-0.4,-0.25373,0,-0.536,-0,0,-0.536,-0,0,-0.536,-0,-0.3696,0.8704
0.104,0.168,1.625,0.048,0.072,2,0,0.024,0,0,0.024,0,0,0.024,0,0,0.024,0,0.184,0.568
0,-0.28,-0,0,-0.28,-0,0,-0.28,-0,0,-0.28,-0,0,-0.28,-0,0,-0.28,-0,0.0992,0.1648
0,-0.32,-0,0,-0.32,-0,0,-0.32,-0,0,-0.32,-0,0,-0.32,-0,0,-0.32,-0,0.1056,0.1984
0.52,-0.12,-0.8125,0.336,-0.304,-0.525,0.144,-0.496,-0.225,0.072,-0.568,-0.1125,0,-0.64,-0,0,-0.64,-0,-0.1792,0.456
0.104,-0.512,-0.16883,0.048,-0.568,-0.077922,0,-0.616,-0,0,-0.616,-0,0,-0.616,-0,0,-0.616,-0,-0.512,1.208
0,-0.344,-0,0,-0.344,-0,0,-0.344,-0,0,-0.344,-0,0,-0.344,-0,0,-0.344,-0,0.152,0.3488
0.072,0.096,3,0,0.024,0,0,0.024,0,0,0.024,0,0,0.024,0,0,0.024,0,0.1072,0.2416
0.12,0.16,3,0.056,0.08,2.3333,0.032,0.04,4,0,0.008,0,0,0.008,0,0,0.008,0,0.0864,0.352
0,-0.36,-0,0,-0.36,-0,0,-0.36,-0,0,-0.36,-0,0,-0.36,-0,0,-0.36,-0,-0.2368,0.536
0,-0.36,-0,0,-0.36,-0,0,-0.36,-0,0,-0.36,-0,0,-0.36,-0,0,-0.36,-0,-0.2368,0.536
0.088,0.136,1.8333,0.048,0.072,2,0.016,0.016,Inf,0,0,NaN,0,0,NaN,0,0,NaN,0.0928,0.1856
0.08,0,-1,0.328,0.248,-4.1,0.216,0.136,-2.7,0.056,-0.024,-0.7,0,-0.08,-0,0,-0.08,-0,-0.4272,1.0368
0.128,0.072,-2.2857,0.072,0.016,-1.2857,0.04,-0.016,-0.71429,0,-0.056,-0,0,-0.056,-0,0,-0.056,-0,-0.2816,0.712
0.152,0.264,1.3571,0.08,0.16,1,0.048,0.096,1,0,0.048,0,0,0.048,0,0,0.048,0,0.1872,0.528
0,-0.08,-0,0,-0.08,-0,0,-0.08,-0,0,-0.08,-0,0,-0.08,-0,0,-0.08,-0,0.0752,0.2528
0.088,-0.208,-0.2973,0.048,-0.248,-0.16216,0.008,-0.288,-0.027027,0,-0.296,-0,0,-0.296,-0,0,-0.296,-0,-0.224,0.5712
0.088,0.152,1.375,0.04,0.072,1.25,0,0.032,0,0,0.032,0,0,0.032,0,0,0.032,0,0.1216,0.272
0,-0.064,-0,0,-0.064,-0,0,-0.064,-0,0,-0.064,-0,0,-0.064,-0,0,-0.064,-0,0.0576,0.2048
0,-0.064,-0,0,-0.064,-0,0,-0.064,-0,0,-0.064,-0,0,-0.064,-0,0,-0.064,-0,-0.5488,1.1936
0.104,0.192,1.1818,0.048,0.088,1.2,0,0.04,0,0,0.04,0,0,0.04,0,0,0.04,0,0.216,0.2336
0,0.016,0,0,0.016,0,0,0.016,0,0,0.016,0,0,0.016,0,0,0.016,0,0.1472,0.1952
0.12,0.2,1.5,0.072,0.12,1.5,0.024,0.032,3,0,0.008,0,0,0.008,0,0,0.008,0,0.0944,0.1856
0,0,NaN,0,0,NaN,0,0,NaN,0,0,NaN,0,0,NaN,0,0,NaN,0.088,0.232
0,-0.136,-0,0,-0.136,-0,0,-0.136,-0,0,-0.136,-0,0,-0.136,-0,0,-0.136,-0,0.1152,0.2416
0.24,-0.208,-0.53571,0.104,-0.344,-0.23214,0.048,-0.4,-0.10714,0,-0.448,-0,0,-0.448,-0,0,-0.448,-0,-0.4224,1.08
0.064,0.104,1.6,0,0.04,0,0,0.04,0,0,0.04,0,0,0.04,0,0,0.04,0,0.2784,0.4448
0.128,0.192,2,0.048,0.08,1.5,0,0.032,0,0,0.032,0,0,0.032,0,0,0.032,0,0.3392,0.6208
0.08,-0.648,-0.10989,0,-0.728,-0,0,-0.728,-0,0,-0.728,-0,0,-0.728,-0,0,-0.728,-0,-0.4688,1.144
0.152,-0.464,-0.24675,0.056,-0.56,-0.090909,0,-0.616,-0,0,-0.616,-0,0,-0.616,-0,0,-0.616,-0,-0.2816,0.5872
0,-0.576,-0,0,-0.576,-0,0,-0.576,-0,0,-0.576,-0,0,-0.576,-0,0,-0.576,-0,0.1024,0.3552
0.416,-0.392,-0.51485,0.176,-0.632,-0.21782,0.136,-0.672,-0.16832,0.048,-0.76,-0.059406,0,-0.808,-0,0,-0.808,-0,-0.3792,0.9056
0,-0.712,-0,0,-0.712,-0,0,-0.712,-0,0,-0.712,-0,0,-0.712,-0,0,-0.712,-0,0.0704,0.1152
0.2,-0.16,-0.55556,0.136,-0.224,-0.37778,0.104,-0.256,-0.28889,0.016,-0.344,-0.044444,0,-0.36,-0,0,-0.36,-0,-0.2752,0.6864
0.144,-0.616,-0.18947,0.08,-0.68,-0.10526,0.04,-0.72,-0.052632,0,-0.76,-0,0,-0.76,-0,0,-0.76,-0,-0.2496,0.7152
0.112,0.168,2,0,0.056,0,0,0.056,0,0,0.056,0,0,0.056,0,0,0.056,0,0.072,0.2304
0.144,0.088,-2.5714,0.064,0.008,-1.1429,0,-0.056,-0,0,-0.056,-0,0,-0.056,-0,0,-0.056,-0,-0.2432,0.576
0,0.24,0,0,0.24,0,0,0.24,0,0,0.24,0,0,0.24,0,0,0.24,0,0.1424,0.2256
0,0.24,0,0,0.24,0,0,0.24,0,0,0.24,0,0,0.24,0,0,0.24,0,0.1424,0.2256
0.088,0.136,1.8333,0.032,0.056,1.3333,0,0.024,0,0,0.024,0,0,0.024,0,0,0.024,0,0.1088,0.352
0.072,0.128,1.2857,0.024,0.048,1,0,0.024,0,0,0.024,0,0,0.024,0,0,0.024,0,0.1136,0.36
0.08,-0.128,-0.38462,0.024,-0.184,-0.11538,0,-0.208,-0,0,-0.208,-0,0,-0.208,-0,0,-0.208,-0,-0.3792,0.8944
0.064,0.104,1.6,0,0.04,0,0,0.04,0,0,0.04,0,0,0.04,0,0,0.04,0,0.1184,0.3536
0.192,0.264,2.6667,0.192,0.264,2.6667,0.192,0.264,2.6667,0.024,0.096,0.33333,0,0.072,0,0,0.072,0,0.1024,0.2816
0.104,0.144,2.6,0.016,0.024,2,0,0.008,0,0,0.008,0,0,0.008,0,0,0.008,0,0.1472,0.4816
0.104,0.16,1.8571,0.048,0.072,2,0,0.024,0,0,0.024,0,0,0.024,0,0,0.024,0,0.1456,0.416
0,0,NaN,0,0,NaN,0,0,NaN,0,0,NaN,0,0,NaN,0,0,NaN,0.1152,0.3008
0.08,-0.176,-0.3125,0,-0.256,-0,0,-0.256,-0,0,-0.256,-0,0,-0.256,-0,0,-0.256,-0,-0.44,1.0432
0.12,-0.152,-0.44118,0.072,-0.2,-0.26471,0.032,-0.24,-0.11765,0,-0.272,-0,0,-0.272,-0,0,-0.272,-0,-0.3264,0.6688
0.096,0.152,1.7143,0.04,0.072,1.25,0,0.032,0,0,0.032,0,0,0.032,0,0,0.032,0,0.1424,0.4512
0.064,0.104,1.6,0,0.04,0,0,0.04,0,0,0.04,0,0,0.04,0,0,0.04,0,0.1328,0.4144
0.056,0.096,1.4,0,0.04,0,0,0.04,0,0,0.04,0,0,0.04,0,0,0.04,0,0.12,0.3248
0.04,-0.088,-0.3125,0,-0.128,-0,0,-0.128,-0,0,-0.128,-0,0,-0.128,-0,0,-0.128,-0,-0.4256,0.9872
0.104,0.16,1.8571,0.056,0.088,1.75,0,0.032,0,0,0.032,0,0,0.032,0,0,0.032,0,0.1296,0.3632
0.112,-0.312,-0.26415,0.064,-0.36,-0.15094,0.032,-0.392,-0.075472,0,-0.424,-0,0,-0.424,-0,0,-0.424,-0,-0.2016,0.544
0.088,0.136,1.8333,0.048,0.072,2,0,0.024,0,0,0.024,0,0,0.024,0,0,0.024,0,0.0912,0.248
0,0.048,0,0,0.048,0,0,0.048,0,0,0.048,0,0,0.048,0,0,0.048,0,0.1264,0.2544
0.12,0.048,-1.6667,0.08,0.008,-1.1111,0.056,-0.016,-0.77778,0,-0.072,-0,0,-0.072,-0,0,-0.072,-0,-0.1488,0.4016
0.016,-0.072,-0.18182,0.12,0.032,-1.3636,0.088,0,-1,0.04,-0.048,-0.45455,0,-0.088,-0,0,-0.088,-0,-0.152,0.496
0.112,0.2,1.2727,0.072,0.16,0.81818,0.056,0.144,0.63636,0,0.088,0,0,0.088,0,0,0.088,0,-0.1392,0.3968
0.08,0.152,1.1111,0.048,0.088,1.2,0.016,0.032,1,0,0.016,0,0,0.016,0,0,0.016,0,0.2624,0.1824
0,-0.12,-0,0,-0.12,-0,0,-0.12,-0,0,-0.12,-0,0,-0.12,-0,0,-0.12,-0,0.1312,0.1168
0.152,-0.064,-0.7037,0.104,-0.112,-0.48148,0.08,-0.136,-0.37037,0,-0.216,-0,0,-0.216,-0,0,-0.216,-0,-0.1472,0.4112
-0.176,-0.032,-1.2222,0.016,0.032,1,0,0.016,0,0,0.016,0,0,0.016,0,0,0.016,0,0.1392,0.1152
0,-0.216,-0,0,-0.216,-0,0,-0.216,-0,0,-0.216,-0,0,-0.216,-0,0,-0.216,-0,-0.2304,0.6048
0.544,0.416,-4.25,0.112,-0.016,-0.875,0.088,-0.04,-0.6875,0.04,-0.088,-0.3125,0,-0.128,-0,0,-0.128,-0,-0.2128,0.6064
0.08,-0.128,-0.38462,0.12,-0.088,-0.57692,0.088,-0.12,-0.42308,0.04,-0.168,-0.19231,0,-0.208,-0,0,-0.208,-0,-0.2176,0.6096
0.128,0.184,2.2857,0.056,0.088,1.75,0,0.032,0,0,0.032,0,0,0.032,0,0,0.032,0,0.112,0.3952
0.128,0.184,2.2857,0.056,0.088,1.75,0,0.032,0,0,0.032,0,0,0.032,0,0,0.032,0,0.112,0.3952
0,-0.416,-0,0,-0.416,-0,0,-0.416,-0,0,-0.416,-0,0,-0.416,-0,0,-0.416,-0,0.1728,0.5936
0.12,0.176,2.1429,0.064,0.096,2,0.016,0.016,Inf,0,0,NaN,0,0,NaN,0,0,NaN,0.144,0.6192
0.04,0.056,2.5,0,0.016,0,0,0.016,0,0,0.016,0,0,0.016,0,0,0.016,0,0.1328,0.464
0,0.432,0,0,0.432,0,0,0.432,0,0,0.432,0,0,0.432,0,0,0.432,0,0.0816,0.2896
0.176,0.208,5.5,0,0.032,0,0,0.032,0,0,0.032,0,0,0.032,0,0,0.032,0,0.072,0.2672
0.136,0.2,2.125,0.08,0.12,2,0.032,0.048,2,0,0.016,0,0,0.016,0,0,0.016,0,0.0912,0.2896
0,0.216,0,0,0.216,0,0,0.216,0,0,0.216,0,0,0.216,0,0,0.216,0,0.096,0.296
0.12,0.176,2.1429,0.064,0.096,2,0.032,0.048,2,0,0.016,0,0,0.016,0,0,0.016,0,0.1456,0.6864
0,-0.408,-0,0,-0.408,-0,0,-0.408,-0,0,-0.408,-0,0,-0.408,-0,0,-0.408,-0,0.0944,0.4048
0,-0.4,-0,0,-0.4,-0,0,-0.4,-0,0,-0.4,-0,0,-0.4,-0,0,-0.4,-0,-0.1184,0.2992
0.152,-0.264,-0.36538,0.088,-0.328,-0.21154,0.048,-0.368,-0.11538,0,-0.416,-0,0,-0.416,-0,0,-0.416,-0,-0.2864,0.6656
0.128,0.184,2.2857,0.064,0.088,2.6667,0,0.024,0,0,0.024,0,0,0.024,0,0,0.024,0,0.12,0.424
-0.408,-0.232,-2.3182,-0.408,-0.232,-2.3182,0.56,0.736,3.1818,0.544,0.72,3.0909,0.544,0.72,3.0909,0.536,0.712,3.0455,0.1376,0.4784
0,0.112,0,0,0.112,0,0,0.112,0,0,0.112,0,0,0.112,0,0,0.112,0,0.0624,0.1104
0,-0.08,-0,0,-0.08,-0,0,-0.08,-0,0,-0.08,-0,0,-0.08,-0,0,-0.08,-0,0.08,0.2576
0.096,-0.256,-0.27273,0.048,-0.304,-0.13636,0,-0.352,-0,0,-0.352,-0,0,-0.352,-0,0,-0.352,-0,-0.36,0.7872
1.144,0.88,-4.3333,0.128,-0.136,-0.48485,0.064,-0.2,-0.24242,0,-0.264,-0,0,-0.264,-0,0,-0.264,-0,-0.3424,0.728
0.088,-0.208,-0.2973,0.032,-0.264,-0.10811,0,-0.296,-0,0,-0.296,-0,0,-0.296,-0,0,-0.296,-0,-0.488,1.1312
0.096,-0.28,-0.25532,0.048,-0.328,-0.12766,0,-0.376,-0,0,-0.376,-0,0,-0.376,-0,0,-0.376,-0,-0.4032,0.8224
0.064,0.104,1.6,0,0.04,0,0,0.04,0,0,0.04,0,0,0.04,0,0,0.04,0,0.1104,0.3168
0,0.056,0,0,0.056,0,0,0.056,0,0,0.056,0,0,0.056,0,0,0.056,0,0.096,0.352
0,-0.128,-0,0,-0.128,-0,0,-0.128,-0,0,-0.128,-0,0,-0.128,-0,0,-0.128,-0,0.1088,0.3632
0.12,0.176,2.1429,0.056,0.08,2.3333,0,0.024,0,0,0.024,0,0,0.024,0,0,0.024,0,0.144,0.4736
0.112,0.112,Inf,0.048,0.048,Inf,0,0,NaN,0,0,NaN,0,0,NaN,0,0,NaN,0.0928,0.488
0.096,-0.032,-0.75,0.04,-0.088,-0.3125,0,-0.128,-0,0,-0.128,-0,0,-0.128,-0,0,-0.128,-0,-0.4576,1.04
0.104,0.152,2.1667,0.048,0.072,2,0,0.024,0,0,0.024,0,0,0.024,0,0,0.024,0,0.096,0.32
0.112,0.176,1.75,0.056,0.096,1.4,0.016,0.024,2,0,0.008,0,0,0.008,0,0,0.008,0,0.1152,0.4528
0.104,0.152,2.1667,0.032,0.048,2,0,0.016,0,0,0.016,0,0,0.016,0,0,0.016,0,0.1504,0.648
0.096,0.144,2,0.04,0.064,1.6667,0,0.024,0,0,0.024,0,0,0.024,0,0,0.024,0,0.1008,0.4448
0.112,0.176,1.75,0.064,0.104,1.6,0.024,0.04,1.5,0,0.016,0,0,0.016,0,0,0.016,0,0.152,0.5184
0.104,0.152,2.1667,0.056,0.088,1.75,0.016,0.016,Inf,0,0,NaN,0,0,NaN,0,0,NaN,0.0976,0.3408
0,-0.088,-0,0,-0.088,-0,0,-0.088,-0,0,-0.088,-0,0,-0.088,-0,0,-0.088,-0,0.104,0.3632
0,-0.368,-0,0,-0.368,-0,0,-0.368,-0,0,-0.368,-0,0,-0.368,-0,0,-0.368,-0,-0.1936,0.52
0.112,0.168,2,0.056,0.088,1.75,0.024,0.032,3,0,0.008,0,0,0.008,0,0,0.008,0,0.1216,0.4288
0.112,-0.296,-0.27451,0.08,-0.328,-0.19608,0.056,-0.352,-0.13725,0,-0.408,-0,0,-0.408,-0,0,-0.408,-0,-0.2944,0.736
0.032,-0.376,-0.078431,0,-0.408,-0,0,-0.408,-0,0,-0.408,-0,0,-0.408,-0,0,-0.408,-0,-0.1344,0.3488
0.08,0.128,1.6667,0.032,0.064,1,0,0.032,0,0,0.032,0,0,0.032,0,0,0.032,0,0.1264,0.2352
0.096,0.144,2,0.056,0.088,1.75,0.024,0.032,3,0,0.008,0,0,0.008,0,0,0.008,0,0.1152,0.232
0.112,0.248,0.82353,0.088,0.2,0.78571,0.04,0.08,1,0,0.04,0,0,0.04,0,0,0.04,0,0.1696,0.4608
0.104,-0.32,-0.24528,0.04,-0.384,-0.09434,0,-0.424,-0,0,-0.424,-0,0,-0.424,-0,0,-0.424,-0,-0.4144,0.9504
0,-0.12,-0,0,-0.12,-0,0,-0.12,-0,0,-0.12,-0,0,-0.12,-0,0,-0.12,-0,0.1024,0.4384
0,-0.176,-0,0,-0.176,-0,0,-0.176,-0,0,-0.176,-0,0,-0.176,-0,0,-0.176,-0,0.1264,0.424
0,-0.24,-0,0,-0.24,-0,0,-0.24,-0,0,-0.24,-0,0,-0.24,-0,0,-0.24,-0,0.1312,0.296
0.144,0.192,3,0.024,0.04,1.5,0,0.016,0,0,0.016,0,0,0.016,0,0,0.016,0,0.1376,0.504
0.128,0.16,4,0,0.032,0,0,0.032,0,0,0.032,0,0,0.032,0,0,0.032,0,0.1312,0.4816
0,-0.104,-0,0,-0.104,-0,0,-0.104,-0,0,-0.104,-0,0,-0.104,-0,0,-0.104,-0,0.208,0.4176
0,-0.104,-0,0,-0.104,-0,0,-0.104,-0,0,-0.104,-0,0,-0.104,-0,0,-0.104,-0,0.208,0.4176
0.112,0.192,1.4,0.056,0.096,1.4,0.016,0.016,Inf,0,0,NaN,0,0,NaN,0,0,NaN,0.1344,0.2048
0.088,0.144,1.5714,0.032,0.048,2,0,0.016,0,0,0.016,0,0,0.016,0,0,0.016,0,0.2016,0.5296
0.184,0.288,1.7692,0.112,0.192,1.4,0.072,0.12,1.5,0,0.048,0,0,0.048,0,0,0.048,0,0.152,0.4768
0.184,0.288,1.7692,0.112,0.192,1.4,0.072,0.12,1.5,0,0.048,0,0,0.048,0,0,0.048,0,0.152,0.4768
0.232,0.328,2.4167,0.152,0.216,2.375,0.064,0.104,1.6,0,0.04,0,0,0.04,0,0,0.04,0,0.1088,0.3632
0,-0.336,-0,0,-0.336,-0,0,-0.336,-0,0,-0.336,-0,0,-0.336,-0,0,-0.336,-0,-0.112,0.352
0,-0.24,-0,0,-0.24,-0,0,-0.24,-0,0,-0.24,-0,0,-0.24,-0,0,-0.24,-0,0.0944,0.16
0.12,0.184,1.875,0.016,0.016,Inf,0,0,NaN,0,0,NaN,0,0,NaN,0,0,NaN,0.216,0.456
0,-0.008,-0,0,-0.008,-0,0,-0.008,-0,0,-0.008,-0,0,-0.008,-0,0,-0.008,-0,0.1552,0.3632
0.096,0.16,1.5,0,0.064,0,0,0.064,0,0,0.064,0,0,0.064,0,0,0.064,0,0.184,0.488
0.128,0.208,1.6,0.016,0.024,2,0,0.008,0,0,0.008,0,0,0.008,0,0,0.008,0,0.2112,0.4864
0.76,0.008,-1.0106,0.416,-0.336,-0.55319,0.272,-0.48,-0.3617,0.088,-0.664,-0.11702,0,-0.752,-0,0,-0.752,-0,-0.424,0.9392
0,-0.632,-0,0,-0.632,-0,0,-0.632,-0,0,-0.632,-0,0,-0.632,-0,0,-0.632,-0,-0.1616,0.376
0,-0.728,-0,0,-0.728,-0,0,-0.728,-0,0,-0.728,-0,0,-0.728,-0,0,-0.728,-0,-0.1344,0.48
0.112,0.184,1.5556,0.064,0.112,1.3333,0.04,0.072,1.25,0,0.032,0,0,0.032,0,0,0.032,0,0.112,0.2272
0.04,-0.08,-0.33333,0,-0.12,-0,0,-0.12,-0,0,-0.12,-0,0,-0.12,-0,0,-0.12,-0,-0.3664,0.7984
0.08,-0.04,-0.66667,0.04,-0.08,-0.33333,0,-0.12,-0,0,-0.12,-0,0,-0.12,-0,0,-0.12,-0,-0.3248,0.7952
0.072,-0.12,-0.375,0.176,-0.016,-0.91667,0.096,-0.096,-0.5,0,-0.192,-0,0,-0.192,-0,0,-0.192,-0,-0.3344,0.7552
0,-0.136,-0,0,-0.136,-0,0,-0.136,-0,0,-0.136,-0,0,-0.136,-0,0,-0.136,-0,0.1056,0.2848
0.144,-0.04,-0.78261,0.088,-0.096,-0.47826,0.064,-0.12,-0.34783,0,-0.184,-0,0,-0.184,-0,0,-0.184,-0,-0.3712,0.872
0,0.136,0,0,0.136,0,0,0.136,0,0,0.136,0,0,0.136,0,0,0.136,0,0.0976,0.2176
0.192,0.288,2,0.104,0.168,1.625,0.064,0.112,1.3333,0,0.048,0,0,0.048,0,0,0.048,0,0.1696,0.3776
0.096,0.16,1.5,0.048,0.08,1.5,0,0.032,0,0,0.032,0,0,0.032,0,0,0.032,0,0.1792,0.4208
0.096,0.168,1.3333,0.056,0.096,1.4,0,0.04,0,0,0.04,0,0,0.04,0,0,0.04,0,0.1456,0.3696
0.096,0.16,1.5,0.048,0.08,1.5,0,0.032,0,0,0.032,0,0,0.032,0,0,0.032,0,0.1088,0.2608
0,-0.216,-0,0,-0.216,-0,0,-0.216,-0,0,-0.216,-0,0,-0.216,-0,0,-0.216,-0,0.08,0.1792
0.096,0.152,1.7143,0.048,0.08,1.5,0,0.032,0,0,0.032,0,0,0.032,0,0,0.032,0,0.136,0.3824
0.288,-0.08,-0.78261,0.168,-0.2,-0.45652,0.136,-0.232,-0.36957,0.04,-0.328,-0.1087,0,-0.368,-0,0,-0.368,-0,-0.3008,0.7744
0.08,-0.224,-0.26316,0.016,-0.288,-0.052632,0,-0.304,-0,0,-0.304,-0,0,-0.304,-0,0,-0.304,-0,-0.1856,0.3664
0,-0.008,-0,0,-0.008,-0,0,-0.008,-0,0,-0.008,-0,0,-0.008,-0,0,-0.008,-0,0.128,0.3168
0,-0.152,-0,0,-0.152,-0,0,-0.152,-0,0,-0.152,-0,0,-0.152,-0,0,-0.152,-0,-0.1712,0.5472
0.144,-0.08,-0.64286,0.072,-0.152,-0.32143,0.04,-0.184,-0.17857,0,-0.224,-0,0,-0.224,-0,0,-0.224,-0,-0.1728,0.4896
0.384,0.552,2.2857,0.104,0.184,1.3,0.048,0.088,1.2,0,0.04,0,0,0.04,0,0,0.04,0,0.1776,0.4544
0.088,0.136,1.8333,0.04,0.064,1.6667,0,0.024,0,0,0.024,0,0,0.024,0,0,0.024,0,0.1664,0.4496
0.128,0.2,1.7778,0.128,0.2,1.7778,0.128,0.2,1.7778,0.128,0.2,1.7778,0,0.072,0,0,0.072,0,0.0736,0.1792
0,-0.048,-0,0,-0.048,-0,0,-0.048,-0,0,-0.048,-0,0,-0.048,-0,0,-0.048,-0,-0.312,0.7616
0.056,0.088,1.75,0.016,0.024,2,0,0.008,0,0,0.008,0,0,0.008,0,0,0.008,0,0.0848,0.3248
0.112,0.152,2.8,0.024,0.04,1.5,0,0.016,0,0,0.016,0,0,0.016,0,0,0.016,0,0.1232,0.4864
0.096,-0.008,-0.92308,0.056,-0.048,-0.53846,0,-0.104,-0,0,-0.104,-0,0,-0.104,-0,0,-0.104,-0,-0.4336,1.0816
0.104,0.232,0.8125,0.064,0.152,0.72727,0.032,0.072,0.8,0,0.04,0,0,0.04,0,0,0.04,0,0.232,0.5584
0.064,0.152,0.72727,0,0.088,0,0,0.088,0,0,0.088,0,0,0.088,0,0,0.088,0,0.1616,0.3648
0.088,0.152,1.375,0.024,0.04,1.5,0,0.016,0,0,0.016,0,0,0.016,0,0,0.016,0,0.1584,0.4944
0.088,0.128,2.2,0,0.04,0,0,0.04,0,0,0.04,0,0,0.04,0,0,0.04,0,0.1488,0.5152
0.24,-0.296,-0.44776,0.144,-0.392,-0.26866,0.096,-0.44,-0.1791,0,-0.536,-0,0,-0.536,-0,0,-0.536,-0,-0.272,0.7392
0.104,0.184,1.3,0.04,0.064,1.6667,0,0.024,0,0,0.024,0,0,0.024,0,0,0.024,0,0.2224,0.4464
0.104,0.184,1.3,0.048,0.088,1.2,0,0.04,0,0,0.04,0,0,0.04,0,0,0.04,0,0.1808,0.4256
0.08,0.128,1.6667,0,0.048,0,0,0.048,0,0,0.048,0,0,0.048,0,0,0.048,0,0.1504,0.4336
0,-0.032,-0,0,-0.032,-0,0,-0.032,-0,0,-0.032,-0,0,-0.032,-0,0,-0.032,-0,0.1104,0.2336
0,-0.032,-0,0,-0.032,-0,0,-0.032,-0,0,-0.032,-0,0,-0.032,-0,0,-0.032,-0,0.1104,0.2336
0.152,-0.128,-0.54286,0.096,-0.184,-0.34286,0.04,-0.24,-0.14286,0,-0.28,-0,0,-0.28,-0,0,-0.28,-0,-0.328,0.8048
0,0.088,0,0,0.088,0,0,0.088,0,0,0.088,0,0,0.088,0,0,0.088,0,0.0944,0.288
0.136,-0.24,-0.3617,0.096,-0.28,-0.25532,0.064,-0.312,-0.17021,0,-0.376,-0,0,-0.376,-0,0,-0.376,-0,-0.2224,0.5696
-0.168,-0.032,-1.2353,-0.168,-0.032,-1.2353,-0.168,-0.032,-1.2353,0.152,0.288,1.1176,0.136,0.272,1,0.128,0.264,0.94118,0.12,0.2224
0.056,0.096,1.4,0.016,0.032,1,0,0.016,0,0,0.016,0,0,0.016,0,0,0.016,0,0.1008,0.1872
0,0.064,0,0,0.064,0,0,0.064,0,0,0.064,0,0,0.064,0,0,0.064,0,0.1136,0.2496
0.192,0.256,3,0.072,0.136,1.125,0,0.064,0,0,0.064,0,0,0.064,0,0,0.064,0,0.0864,0.2784
0.44,0.248,-2.2917,0.336,0.144,-1.75,0.16,-0.032,-0.83333,0.056,-0.136,-0.29167,0,-0.192,-0,0,-0.192,-0,-0.2448,0.6128
0.064,0.112,1.3333,0,0.048,0,0,0.048,0,0,0.048,0,0,0.048,0,0,0.048,0,0.1104,0.2304
0.096,0.152,1.7143,0.04,0.072,1.25,0,0.032,0,0,0.032,0,0,0.032,0,0,0.032,0,0.1168,0.2336
0.08,0.128,1.6667,0.024,0.04,1.5,0,0.016,0,0,0.016,0,0,0.016,0,0,0.016,0,0.1168,0.232
0.12,0.2,1.5,0.08,0.136,1.4286,0.056,0.096,1.4,0,0.04,0,0,0.04,0,0,0.04,0,0.1152,0.2144
0.264,0.04,-1.1786,0.264,0.04,-1.1786,0.4,0.176,-1.7857,0.112,-0.112,-0.5,0.024,-0.2,-0.10714,0,-0.224,-0,-0.3504,0.8208
-0.112,-0.008,-1.0769,0.136,0.208,1.8889,0.096,0.152,1.7143,0,0.056,0,0,0.056,0,0,0.056,0,0.1008,0.2736
0.272,0.232,-6.8,0.104,0.064,-2.6,0.08,0.04,-2,0,-0.04,-0,0,-0.04,-0,0,-0.04,-0,-0.3808,0.8448
0.152,0.232,1.9,0.088,0.144,1.5714,0.064,0.104,1.6,0,0.04,0,0,0.04,0,0,0.04,0,0.1728,0.4544
0,-0.176,-0,0,-0.176,-0,0,-0.176,-0,0,-0.176,-0,0,-0.176,-0,0,-0.176,-0,0.1072,0.2064
0,-0.176,-0,0,-0.176,-0,0,-0.176,-0,0,-0.176,-0,0,-0.176,-0,0,-0.176,-0,0.1072,0.2064
0.136,-0.272,-0.33333,0,-0.408,-0,0,-0.408,-0,0,-0.408,-0,0,-0.408,-0,0,-0.408,-0,-0.1744,0.456
-0.256,-0.168,-2.9091,0.096,0.152,1.7143,0.072,0.12,1.5,0.008,0.016,1,0,0.008,0,0,0.008,0,0.104,0.1792
0.144,0.216,2,0.104,0.152,2.1667,0.08,0.12,2,0,0.04,0,0,0.04,0,0,0.04,0,0.0992,0.1936
-0.224,-0.144,-2.8,0.128,0.184,2.2857,0.096,0.144,2,0,0.048,0,0,0.048,0,0,0.048,0,0.0848,0.2448
0.024,0.04,1.5,0,0.016,0,0,0.016,0,0,0.016,0,0,0.016,0,0,0.016,0,0.088,0.1728
0.056,0.112,1,0.056,0.112,1,0.064,0.096,2,0,0.032,0,0,0.032,0,0,0.032,0,0.0704,0.1648
0,0.08,0,0,0.08,0,0,0.08,0,0,0.08,0,0,0.08,0,0,0.08,0,0.0944,0.1904
0.08,0.128,1.6667,0.048,0.072,2,0,0.024,0,0,0.024,0,0,0.024,0,0,0.024,0,0.1136,0.2848
0.152,0.048,-1.4615,0.096,-0.008,-0.92308,0.04,-0.064,-0.38462,0,-0.104,-0,0,-0.104,-0,0,-0.104,-0,-0.48,1.0256
0,0.032,0,0,0.032,0,0,0.032,0,0,0.032,0,0,0.032,0,0,0.032,0,0.0976,0.1168
0.12,-0.008,-0.9375,0.056,-0.072,-0.4375,0,-0.128,-0,0,-0.128,-0,0,-0.128,-0,0,-0.128,-0,-0.2784,0.6512
0.096,0.152,1.7143,0.056,0.088,1.75,0.016,0.024,2,0,0.008,0,0,0.008,0,0,0.008,0,0.1072,0.2032
-0.224,-0.048,-1.2727,0.24,0.384,1.6667,0.168,0.28,1.5,0.088,0.152,1.375,0,0.064,0,0,0.064,0,0.1744,0.4528
0.136,0.224,1.5455,0.088,0.152,1.375,0.056,0.104,1.1667,0,0.048,0,0,0.048,0,0,0.048,0,0.1296,0.2336
0.216,0.336,1.8,0.096,0.184,1.0909,0.064,0.128,1,0,0.064,0,0,0.064,0,0,0.064,0,0.1824,0.4416
0.232,0.16,-3.2222,0.128,0.056,-1.7778,0.088,0.016,-1.2222,0,-0.072,-0,0,-0.072,-0,0,-0.072,-0,-0.432,1.0016
0.2,0.12,-2.5,0.128,0.048,-1.6,0.096,0.016,-1.2,0,-0.08,-0,0,-0.08,-0,0,-0.08,-0,-0.4224,1.0144
0.104,0.072,-3.25,0.048,0.016,-1.5,0,-0.032,-0,0,-0.032,-0,0,-0.032,-0,0,-0.032,-0,-0.3472,0.8544
0.208,0.04,-1.2381,0.12,-0.048,-0.71429,0.088,-0.08,-0.52381,0,-0.168,-0,0,-0.168,-0,0,-0.168,-0,-0.384,0.9632
0,0.16,0,0,0.16,0,0,0.16,0,0,0.16,0,0,0.16,0,0,0.16,0,0.1568,0.36
0,-0.08,-0,0,-0.08,-0,0,-0.08,-0,0,-0.08,-0,0,-0.08,-0,0,-0.08,-0,0.1664,0.392
0.112,0.184,1.5556,0.064,0.096,2,0,0.032,0,0,0.032,0,0,0.032,0,0,0.032,0,0.16,0.3856
0.112,0.136,4.6667,0,0.024,0,0,0.024,0,0,0.024,0,0,0.024,0,0,0.024,0,0.0912,0.264
0.088,0.136,1.8333,0.048,0.072,2,0,0.024,0,0,0.024,0,0,0.024,0,0,0.024,0,0.1088,0.1792
0,0.008,0,0,0.008,0,0,0.008,0,0,0.008,0,0,0.008,0,0,0.008,0,0.1184,0.1616
0,-0.088,-0,0,-0.088,-0,0,-0.088,-0,0,-0.088,-0,0,-0.088,-0,0,-0.088,-0,-0.1488,0.432
0,0.024,0,0,0.024,0,0,0.024,0,0,0.024,0,0,0.024,0,0,0.024,0,0.088,0.1616
0,0.16,0,0,0.16,0,0,0.16,0,0,0.16,0,0,0.16,0,0,0.16,0,0.1184,0.4976
0,0.16,0,0,0.16,0,0,0.16,0,0,0.16,0,0,0.16,0,0,0.16,0,0.1184,0.4976
0.104,0.088,-6.5,0.056,0.04,-3.5,0.016,0,-1,0,-0.016,-0,0,-0.016,-0,0,-0.016,-0,-0.304,0.7168
0,-0.104,-0,0,-0.104,-0,0,-0.104,-0,0,-0.104,-0,0,-0.104,-0,0,-0.104,-0,-0.3152,0.7504
0,0.384,0,0,0.384,0,0,0.384,0,0,0.384,0,0,0.384,0,0,0.384,0,0.0848,0.3232
0.08,0.168,0.90909,0,0.088,0,0,0.088,0,0,0.088,0,0,0.088,0,0,0.088,0,0.2176,0.672
0.136,-0.304,-0.30909,0.064,-0.376,-0.14545,0.024,-0.416,-0.054545,0,-0.44,-0,0,-0.44,-0,0,-0.44,-0,-0.6336,1.44
0.208,0.344,1.5294,0.12,0.208,1.3636,0.088,0.16,1.2222,0.024,0.064,0.6,0,0.04,0,0,0.04,0,0.1344,0.504
0.088,0.176,1,0,0.088,0,0,0.088,0,0,0.088,0,0,0.088,0,0,0.088,0,0.1856,0.6032
0.072,0.128,1.2857,0,0.056,0,0,0.056,0,0,0.056,0,0,0.056,0,0,0.056,0,0.1984,0.6064
0.096,0.168,1.3333,0,0.072,0,0,0.072,0,0,0.072,0,0,0.072,0,0,0.072,0,0.1664,0.536
0.096,-0.656,-0.12766,0.04,-0.712,-0.053191,0,-0.752,-0,0,-0.752,-0,0,-0.752,-0,0,-0.752,-0,-0.4,1.0528
0.08,-0.728,-0.09901,0,-0.808,-0,0,-0.808,-0,0,-0.808,-0,0,-0.808,-0,0,-0.808,-0,-0.5056,1.2096
0.128,0.232,1.2308,0.08,0.144,1.25,0.048,0.088,1.2,0,0.04,0,0,0.04,0,0,0.04,0,0.2,0.5088
0.144,0.264,1.2,0.08,0.16,1,0.056,0.112,1,0,0.056,0,0,0.056,0,0,0.056,0,0.2272,0.5616
0,-0.272,-0,0,-0.272,-0,0,-0.272,-0,0,-0.272,-0,0,-0.272,-0,0,-0.272,-0,-0.3248,0.9216
0.048,0.08,1.5,0,0.032,0,0,0.032,0,0,0.032,0,0,0.032,0,0,0.032,0,0.2144,0.5248
0.096,0.168,1.3333,0.04,0.072,1.25,0,0.032,0,0,0.032,0,0,0.032,0,0,0.032,0,0.1664,0.3664
0.104,0.192,1.1818,0.048,0.088,1.2,0,0.04,0,0,0.04,0,0,0.04,0,0,0.04,0,0.2,0.4368
0.136,-0.4,-0.25373,0.072,-0.464,-0.13433,0.032,-0.504,-0.059701,0,-0.536,-0,0,-0.536,-0,0,-0.536,-0,-0.464,1.0192
0.088,0.152,1.375,0.024,0.032,3,0,0.008,0,0,0.008,0,0,0.008,0,0,0.008,0,0.2128,0.4768
0.112,-0.312,-0.26415,0.056,-0.368,-0.13208,0,-0.424,-0,0,-0.424,-0,0,-0.424,-0,0,-0.424,-0,-0.4592,1.1152
0,-0.488,-0,0,-0.488,-0,0,-0.488,-0,0,-0.488,-0,0,-0.488,-0,0,-0.488,-0,-0.4176,0.976
0.104,0.184,1.3,0.04,0.072,1.25,0,0.032,0,0,0.032,0,0,0.032,0,0,0.032,0,0.2112,0.4992
0.088,0.152,1.375,0,0.064,0,0,0.064,0,0,0.064,0,0,0.064,0,0,0.064,0,0.2112,0.4448
0.096,0.176,1.2,0.032,0.056,1.3333,0,0.024,0,0,0.024,0,0,0.024,0,0,0.024,0,0.1984,0.424
0.096,-0.032,-0.75,0.04,-0.088,-0.3125,0,-0.128,-0,0,-0.128,-0,0,-0.128,-0,0,-0.128,-0,-0.4,0.9488
0,0.016,0,0,0.016,0,0,0.016,0,0,0.016,0,0,0.016,0,0,0.016,0,0.168,0.296
0.056,0.104,1.1667,0,0.048,0,0,0.048,0,0,0.048,0,0,0.048,0,0,0.048,0,0.184,0.4512
0.096,-0.296,-0.2449,0.04,-0.352,-0.10204,0,-0.392,-0,0,-0.392,-0,0,-0.392,-0,0,-0.392,-0,-0.496,1.1728
0.048,0.088,1.2,0,0.04,0,0,0.04,0,0,0.04,0,0,0.04,0,0,0.04,0,0.1872,0.4016
0,-0.416,-0,0,-0.416,-0,0,-0.416,-0,0,-0.416,-0,0,-0.416,-0,0,-0.416,-0,-0.1984,0.5792
0.112,0.192,1.4,0.04,0.072,1.25,0,0.032,0,0,0.032,0,0,0.032,0,0,0.032,0,0.2208,0.3808
0,-0.176,-0,0,-0.176,-0,0,-0.176,-0,0,-0.176,-0,0,-0.176,-0,0,-0.176,-0,0.1888,0.3008
0.064,0.112,1.3333,0,0.048,0,0,0.048,0,0,0.048,0,0,0.048,0,0,0.048,0,0.1472,0.3792
0.128,0.088,-3.2,0.048,0.008,-1.2,0,-0.04,-0,0,-0.04,-0,0,-0.04,-0,0,-0.04,-0,-0.4512,1.0752
0.064,0.056,-8,0,-0.008,-0,0,-0.008,-0,0,-0.008,-0,0,-0.008,-0,0,-0.008,-0,-0.4384,1.056
0.12,0.176,2.1429,0.056,0.088,1.75,0,0.032,0,0,0.032,0,0,0.032,0,0,0.032,0,0.1488,0.4464
0.12,0.144,5,0.016,0.016,Inf,0,0,NaN,0,0,NaN,0,0,NaN,0,0,NaN,0.1088,0.3376
0.168,-0.096,-0.63636,0.104,-0.16,-0.39394,0.056,-0.208,-0.21212,0,-0.264,-0,0,-0.264,-0,0,-0.264,-0,-0.4304,0.9632
0.168,-0.096,-0.63636,0.104,-0.16,-0.39394,0.056,-0.208,-0.21212,0,-0.264,-0,0,-0.264,-0,0,-0.264,-0,-0.4304,0.9632
0.616,0.376,-2.5667,0.192,-0.048,-0.8,0.144,-0.096,-0.6,0.04,-0.2,-0.16667,0,-0.24,-0,0,-0.24,-0,-0.3072,0.792
0,-0.36,-0,0,-0.36,-0,0,-0.36,-0,0,-0.36,-0,0,-0.36,-0,0,-0.36,-0,-0.1264,0.3888
0.336,0.088,-1.3548,0.088,-0.16,-0.35484,0.064,-0.184,-0.25806,0,-0.248,-0,0,-0.248,-0,0,-0.248,-0,-0.1632,0.4256
0.232,0.008,-1.0357,0.04,-0.184,-0.17857,0,-0.224,-0,0,-0.224,-0,0,-0.224,-0,0,-0.224,-0,-0.5312,1.3088
0.128,0.224,1.3333,0.056,0.104,1.1667,0,0.048,0,0,0.048,0,0,0.048,0,0,0.048,0,0.2336,0.5024
0.024,0.04,1.5,0,0.016,0,0,0.016,0,0,0.016,0,0,0.016,0,0,0.016,0,0.2128,0.4384
0,-0.144,-0,0,-0.144,-0,0,-0.144,-0,0,-0.144,-0,0,-0.144,-0,0,-0.144,-0,0.1024,0.1536
0,-0.144,-0,0,-0.144,-0,0,-0.144,-0,0,-0.144,-0,0,-0.144,-0,0,-0.144,-0,0.1024,0.1536
0,0.632,0,0,0.632,0,0,0.632,0,0,0.632,0,0,0.632,0,0,0.632,0,0.2672,0.3168
0.224,0.104,-1.8667,0.136,0.016,-1.1333,0,-0.12,-0,0,-0.12,-0,0,-0.12,-0,0,-0.12,-0,-0.3216,0.968
0.224,-0.072,-0.75676,0.128,-0.168,-0.43243,0.056,-0.24,-0.18919,0,-0.296,-0,0,-0.296,-0,0,-0.296,-0,-0.4528,1.2304
0.104,0.048,-1.8571,0,-0.056,-0,0,-0.056,-0,0,-0.056,-0,0,-0.056,-0,0,-0.056,-0,-0.344,0.9872
0.192,0.184,-24,0.096,0.088,-12,0,-0.008,-0,0,-0.008,-0,0,-0.008,-0,0,-0.008,-0,-0.3648,0.96
0.288,0.408,2.4,0.208,0.328,1.7333,0.16,0.28,1.3333,0,0.12,0,0,0.12,0,0,0.12,0,-0.4336,1.1568
0.376,0.12,-1.4688,0.328,0.072,-1.2812,0.232,-0.024,-0.90625,0.104,-0.152,-0.40625,0.016,-0.24,-0.0625,0,-0.256,-0,-0.2416,0.5744
-0.048,-0.256,0.23077,0.488,0.28,-2.3462,0.408,0.2,-1.9615,0.288,0.08,-1.3846,0.064,-0.144,-0.30769,0,-0.208,-0,-0.5088,1.3616
0.136,0.016,-1.1333,0,-0.12,-0,0,-0.12,-0,0,-0.12,-0,0,-0.12,-0,0,-0.12,-0,-0.44,1.1504
0.296,0.176,-2.4667,0.216,0.096,-1.8,0.16,0.04,-1.3333,0,-0.12,-0,0,-0.12,-0,0,-0.12,-0,-0.4816,1.224
0.152,0.224,2.1111,0,0.072,0,0,0.072,0,0,0.072,0,0,0.072,0,0,0.072,0,-0.424,0.952
-0.416,-0.32,-4.3333,0,0.096,0,0,0.096,0,0,0.096,0,0,0.096,0,0,0.096,0,0.272,0.448
0.192,-0.472,-0.28916,0,-0.664,-0,0,-0.664,-0,0,-0.664,-0,0,-0.664,-0,0,-0.664,-0,-0.4528,1.2016
0,-0.672,-0,0,-0.672,-0,0,-0.672,-0,0,-0.672,-0,0,-0.672,-0,0,-0.672,-0,-0.3136,0.6736
0,-0.488,-0,0,-0.488,-0,0,-0.488,-0,0,-0.488,-0,0,-0.488,-0,0,-0.488,-0,0.144,0.2896
0,-0.584,-0,0,-0.584,-0,0,-0.584,-0,0,-0.584,-0,0,-0.584,-0,0,-0.584,-0,-0.3376,0.9248
0.072,-0.568,-0.1125,0,-0.64,-0,0,-0.64,-0,0,-0.64,-0,0,-0.64,-0,0,-0.64,-0,-0.2544,0.6656
0.16,0.264,1.5385,0.096,0.168,1.3333,0.056,0.096,1.4,0,0.04,0,0,0.04,0,0,0.04,0,0.1856,0.2576
0.056,-0.24,-0.18919,0,-0.296,-0,0,-0.296,-0,0,-0.296,-0,0,-0.296,-0,0,-0.296,-0,-0.2608,0.7136
0.08,-0.128,-0.38462,0,-0.208,-0,0,-0.208,-0,0,-0.208,-0,0,-0.208,-0,0,-0.208,-0,-0.3168,0.7728
0.024,0.032,3,0,0.008,0,0,0.008,0,0,0.008,0,0,0.008,0,0,0.008,0,0.1488,0.2928
0,-0.376,-0,0,-0.376,-0,0,-0.376,-0,0,-0.376,-0,0,-0.376,-0,0,-0.376,-0,0.1328,0.3008
0.064,-0.432,-0.12903,0,-0.496,-0,0,-0.496,-0,0,-0.496,-0,0,-0.496,-0,0,-0.496,-0,-0.3648,0.8384
0.184,0.344,1.15,0.096,0.216,0.8,0.08,0.184,0.76923,0.016,0.024,2,0,0.008,0,0,0.008,0,0.1584,0.288
0.128,0.2,1.7778,0.072,0.12,1.5,0.032,0.048,2,0,0.016,0,0,0.016,0,0,0.016,0,0.1776,0.3792
0.08,0.144,1.25,0,0.064,0,0,0.064,0,0,0.064,0,0,0.064,0,0,0.064,0,0.144,0.3072
0.12,-0.016,-0.88235,0.048,-0.088,-0.35294,0,-0.136,-0,0,-0.136,-0,0,-0.136,-0,0,-0.136,-0,-0.344,0.8448
0.128,0.224,1.3333,0.048,0.088,1.2,0,0.04,0,0,0.04,0,0,0.04,0,0,0.04,0,0.2,0.4672
0,-0.096,-0,0,-0.096,-0,0,-0.096,-0,0,-0.096,-0,0,-0.096,-0,0,-0.096,-0,-0.4,0.992
0.128,-0.024,-0.84211,0.072,-0.08,-0.47368,0,-0.152,-0,0,-0.152,-0,0,-0.152,-0,0,-0.152,-0,-0.344,0.7872
0.08,0.144,1.25,0.016,0.024,2,0,0.008,0,0,0.008,0,0,0.008,0,0,0.008,0,0.1344,0.3424
0.048,-0.216,-0.18182,0,-0.264,-0,0,-0.264,-0,0,-0.264,-0,0,-0.264,-0,0,-0.264,-0,-0.3456,0.8128
0.088,0.16,1.2222,0,0.072,0,0,0.072,0,0,0.072,0,0,0.072,0,0,0.072,0,0.1808,0.3328
0.2,0.32,1.6667,0.128,0.224,1.3333,0.072,0.136,1.125,0,0.064,0,0,0.064,0,0,0.064,0,0.1888,0.3584
0.12,0.224,1.1538,0.072,0.152,0.9,0.04,0.096,0.71429,0,0.056,0,0,0.056,0,0,0.056,0,0.1712,0.3632
0.032,0.072,0.8,0,0.04,0,0,0.04,0,0,0.04,0,0,0.04,0,0,0.04,0,0.2064,0.4224
0,-0.08,-0,0,-0.08,-0,0,-0.08,-0,0,-0.08,-0,0,-0.08,-0,0,-0.08,-0,-0.304,0.7808
0.032,-0.08,-0.28571,0.2,0.088,-1.7857,0.152,0.04,-1.3571,0.088,-0.024,-0.78571,0,-0.112,-0,0,-0.112,-0,-0.3568,0.8704
0,0.016,0,0,0.016,0,0,0.016,0,0,0.016,0,0,0.016,0,0,0.016,0,0.136,0.3312
0.08,0.128,1.6667,0,0.048,0,0,0.048,0,0,0.048,0,0,0.048,0,0,0.048,0,0.1584,0.4464
0.112,0.16,2.3333,0.04,0.056,2.5,0,0.016,0,0,0.016,0,0,0.016,0,0,0.016,0,0.1568,0.4528
0.16,0.28,1.3333,0.08,0.16,1,0.032,0.064,1,0,0.032,0,0,0.032,0,0,0.032,0,0.1984,0.408
0,-0.176,-0,0,-0.176,-0,0,-0.176,-0,0,-0.176,-0,0,-0.176,-0,0,-0.176,-0,0.256,0.5056
0,0.224,0,0,0.224,0,0,0.224,0,0,0.224,0,0,0.224,0,0,0.224,0,0.1632,0.312
0.136,0.216,1.7,0.056,0.088,1.75,0,0.032,0,0,0.032,0,0,0.032,0,0,0.032,0,0.1584,0.3552
0.12,0.2,1.5,0.056,0.088,1.75,0,0.032,0,0,0.032,0,0,0.032,0,0,0.032,0,0.1808,0.4144
0.136,0.104,-4.25,0.072,0.04,-2.25,0,-0.032,-0,0,-0.032,-0,0,-0.032,-0,0,-0.032,-0,-0.4304,1.0016
0.264,0.432,1.5714,0.16,0.272,1.4286,0.12,0.208,1.3636,0.048,0.088,1.2,0,0.04,0,0,0.04,0,0.1616,0.344
0.128,0.224,1.3333,0.056,0.104,1.1667,0,0.048,0,0,0.048,0,0,0.048,0,0,0.048,0,0.1792,0.3936
0.208,0.312,2,0.112,0.184,1.5556,0.072,0.12,1.5,0,0.048,0,0,0.048,0,0,0.048,0,0.1664,0.3104
0,-0.36,-0,0,-0.36,-0,0,-0.36,-0,0,-0.36,-0,0,-0.36,-0,0,-0.36,-0,-0.4112,0.912
0.288,0.08,-1.3846,0.152,-0.056,-0.73077,0.08,-0.128,-0.38462,0,-0.208,-0,0,-0.208,-0,0,-0.208,-0,-0.5152,1.264
0.144,0.232,1.6364,0.088,0.144,1.5714,0.056,0.088,1.75,0,0.032,0,0,0.032,0,0,0.032,0,0.1744,0.424
0.088,0.152,1.375,0.016,0.024,2,0,0.008,0,0,0.008,0,0,0.008,0,0,0.008,0,0.1792,0.424
0.112,0.192,1.4,0.048,0.088,1.2,0,0.04,0,0,0.04,0,0,0.04,0,0,0.04,0,0.1744,0.408
0.088,0.152,1.375,0.032,0.056,1.3333,0,0.024,0,0,0.024,0,0,0.024,0,0,0.024,0,0.176,0.4064
0.048,0.08,1.5,0,0.032,0,0,0.032,0,0,0.032,0,0,0.032,0,0,0.032,0,0.1888,0.4848
0,-0.008,-0,0,-0.008,-0,0,-0.008,-0,0,-0.008,-0,0,-0.008,-0,0,-0.008,-0,0.1216,0.4224
0.048,0.088,1.2,0,0.04,0,0,0.04,0,0,0.04,0,0,0.04,0,0,0.04,0,0.1728,0.464
0.072,0.128,1.2857,0,0.056,0,0,0.056,0,0,0.056,0,0,0.056,0,0,0.056,0,0.1584,0.4384
0,-0.12,-0,0,-0.12,-0,0,-0.12,-0,0,-0.12,-0,0,-0.12,-0,0,-0.12,-0,0.1104,0.416
0.152,0.256,1.4615,0.096,0.168,1.3333,0.072,0.128,1.2857,0,0.056,0,0,0.056,0,0,0.056,0,0.1712,0.3792
0,0.104,0,0,0.104,0,0,0.104,0,0,0.104,0,0,0.104,0,0,0.104,0,0.1264,0.1728
0,0.112,0,0,0.112,0,0,0.112,0,0,0.112,0,0,0.112,0,0,0.112,0,0.1232,0.2512
0.76,0.672,-8.6364,0.176,0.088,-2,0.136,0.048,-1.5455,0.056,-0.032,-0.63636,0,-0.088,-0,0,-0.088,-0,-0.2512,0.5616
0.08,0.032,-1.6667,0.032,-0.016,-0.66667,0,-0.048,-0,0,-0.048,-0,0,-0.048,-0,0,-0.048,-0,-0.2896,0.7792
0.144,0.056,-1.6364,0.096,0.008,-1.0909,0.072,-0.016,-0.81818,0,-0.088,-0,0,-0.088,-0,0,-0.088,-0,-0.28,0.6144
0,-0.144,-0,0,-0.144,-0,0,-0.144,-0,0,-0.144,-0,0,-0.144,-0,0,-0.144,-0,-0.1936,0.5424
0,-0.136,-0,0,-0.136,-0,0,-0.136,-0,0,-0.136,-0,0,-0.136,-0,0,-0.136,-0,-0.1408,0.4272
0,0.088,0,0,0.088,0,0,0.088,0,0,0.088,0,0,0.088,0,0,0.088,0,0.0944,0.2752
0,0.2,0,0,0.2,0,0,0.2,0,0,0.2,0,0,0.2,0,0,0.2,0,0.1904,0.1584
0.144,0.224,1.8,0.096,0.16,1.5,0.064,0.112,1.3333,0,0.048,0,0,0.048,0,0,0.048,0,0.1152,0.2784
0.152,0.24,1.7273,0.128,0.192,2,0.096,0.144,2,0,0.048,0,0,0.048,0,0,0.048,0,0.112,0.2976
0,0.04,0,0,0.04,0,0,0.04,0,0,0.04,0,0,0.04,0,0,0.04,0,0.1392,0.4016
-0.304,-0.168,-2.2353,-0.304,-0.168,-2.2353,-0.304,-0.192,-2.7143,0,0.112,0,0,0.112,0,0,0.112,0,0.12,0.2992
0.072,-0.184,-0.28125,0.024,-0.232,-0.09375,0,-0.256,-0,0,-0.256,-0,0,-0.256,-0,0,-0.256,-0,-0.3024,0.7456
0.056,-0.256,-0.17949,0.056,-0.256,-0.17949,0.248,-0.064,-0.79487,0.12,-0.192,-0.38462,0,-0.312,-0,0,-0.312,-0,-0.328,0.7952
0,-0.328,-0,0,-0.328,-0,0,-0.328,-0,0,-0.328,-0,0,-0.328,-0,0,-0.328,-0,-0.2064,0.5616
0.104,-0.216,-0.325,0.056,-0.264,-0.175,0.008,-0.312,-0.025,0,-0.32,-0,0,-0.32,-0,0,-0.32,-0,-0.384,0.9264
0.176,-0.08,-0.6875,0.112,-0.144,-0.4375,0.072,-0.184,-0.28125,0,-0.256,-0,0,-0.256,-0,0,-0.256,-0,-0.424,0.9088
0.256,-0.016,-0.94118,0.144,-0.128,-0.52941,0.112,-0.16,-0.41176,0,-0.272,-0,0,-0.272,-0,0,-0.272,-0,-0.3024,0.6496
0.2,-0.064,-0.75758,0.104,-0.16,-0.39394,0.064,-0.2,-0.24242,0,-0.264,-0,0,-0.264,-0,0,-0.264,-0,-0.2768,0.7104
0,0.176,0,0,0.176,0,0,0.176,0,0,0.176,0,0,0.176,0,0,0.176,0,0.1184,0.32
0.096,0.152,1.7143,0.056,0.096,1.4,0.024,0.04,1.5,0,0.016,0,0,0.016,0,0,0.016,0,0.1248,0.3984
0,0.288,0,0,0.288,0,0,0.288,0,0,0.288,0,0,0.288,0,0,0.288,0,0.1072,0.1808
0,0.272,0,0,0.272,0,0,0.272,0,0,0.272,0,0,0.272,0,0,0.272,0,0.1728,0.36
0.072,0.112,1.8,0,0.04,0,0,0.04,0,0,0.04,0,0,0.04,0,0,0.04,0,0.1568,0.424
0.176,0.264,2,0.112,0.168,2,0.064,0.104,1.6,0,0.04,0,0,0.04,0,0,0.04,0,0.1296,0.3136
0.072,-0.256,-0.21951,0,-0.328,-0,0,-0.328,-0,0,-0.328,-0,0,-0.328,-0,0,-0.328,-0,-0.2896,0.6224
0.208,0.304,2.1667,0.128,0.2,1.7778,0.088,0.144,1.5714,0,0.056,0,0,0.056,0,0,0.056,0,0.1472,0.3984
0.344,0.488,2.3889,0.152,0.24,1.7273,0.12,0.2,1.5,0.048,0.08,1.5,0,0.032,0,0,0.032,0,0.112,0.304
0,-0.104,-0,0,-0.104,-0,0,-0.104,-0,0,-0.104,-0,0,-0.104,-0,0,-0.104,-0,0.1632,0.2752
0,0.192,0,0,0.192,0,0,0.192,0,0,0.192,0,0,0.192,0,0,0.192,0,0.176,0.2976
0,-0.4,-0,0,-0.4,-0,0,-0.4,-0,0,-0.4,-0,0,-0.4,-0,0,-0.4,-0,-0.3248,0.9184
-0.08,-0.4,0.25,1.024,0.704,-3.2,0.392,0.072,-1.225,0.144,-0.176,-0.45,0,-0.32,-0,0,-0.32,-0,-0.3824,0.7856
0.12,0.2,1.5,0.024,0.04,1.5,0,0.016,0,0,0.016,0,0,0.016,0,0,0.016,0,0.2016,0.4464
0.16,0.272,1.4286,0.112,0.184,1.5556,0.048,0.08,1.5,0,0.032,0,0,0.032,0,0,0.032,0,0.1328,0.4048
0,0.256,0,0,0.256,0,0,0.256,0,0,0.256,0,0,0.256,0,0,0.256,0,0.1344,0.2544
0.12,-0.208,-0.36585,0.072,-0.256,-0.21951,0.032,-0.296,-0.097561,0,-0.328,-0,0,-0.328,-0,0,-0.328,-0,-0.2624,0.6752
0,-0.224,-0,0,-0.224,-0,0,-0.224,-0,0,-0.224,-0,0,-0.224,-0,0,-0.224,-0,0.1312,0.1504
0,-0.12,-0,0,-0.12,-0,0,-0.12,-0,0,-0.12,-0,0,-0.12,-0,0,-0.12,-0,0.0928,0.1728
0.112,0.176,1.75,0.072,0.112,1.8,0.04,0.064,1.6667,0,0.024,0,0,0.024,0,0,0.024,0,0.1024,0.2144
0,-0.032,-0,0,-0.032,-0,0,-0.032,-0,0,-0.032,-0,0,-0.032,-0,0,-0.032,-0,-0.1664,0.456
0,-0.048,-0,0,-0.048,-0,0,-0.048,-0,0,-0.048,-0,0,-0.048,-0,0,-0.048,-0,-0.208,0.5648
0.224,0.12,-2.1538,0.016,-0.088,-0.15385,0,-0.104,-0,0,-0.104,-0,0,-0.104,-0,0,-0.104,-0,-0.1584,0.4064
0.072,0.112,1.8,0.024,0.032,3,0,0.008,0,0,0.008,0,0,0.008,0,0,0.008,0,0.0976,0.176
0.232,0.304,3.2222,0.024,0.048,1,0,0.024,0,0,0.024,0,0,0.024,0,0,0.024,0,0.1024,0.2672
0,-0.104,-0,0,-0.104,-0,0,-0.104,-0,0,-0.104,-0,0,-0.104,-0,0,-0.104,-0,-0.232,0.5472
0.08,0.128,1.6667,0.04,0.064,1.6667,0,0.024,0,0,0.024,0,0,0.024,0,0,0.024,0,0.1168,0.176
0.072,0.12,1.5,0.024,0.04,1.5,0,0.016,0,0,0.016,0,0,0.016,0,0,0.016,0,0.1424,0.1504
0.072,-0.088,-0.45,0.032,-0.128,-0.2,0,-0.16,-0,0,-0.16,-0,0,-0.16,-0,0,-0.16,-0,-0.216,0.5504
0.112,0.008,-1.0769,0.072,-0.032,-0.69231,0.056,-0.048,-0.53846,0,-0.104,-0,0,-0.104,-0,0,-0.104,-0,-0.1616,0.4064
0.056,0.096,1.4,0,0.04,0,0,0.04,0,0,0.04,0,0,0.04,0,0,0.04,0,0.0928,0.2304
0.064,-0.152,-0.2963,0,-0.216,-0,0,-0.216,-0,0,-0.216,-0,0,-0.216,-0,0,-0.216,-0,-0.2784,0.6192
0.08,-0.168,-0.32258,0.04,-0.208,-0.16129,0.016,-0.232,-0.064516,0,-0.248,-0,0,-0.248,-0,0,-0.248,-0,-0.2,0.4816
0.04,-0.192,-0.17241,0,-0.232,-0,0,-0.232,-0,0,-0.232,-0,0,-0.232,-0,0,-0.232,-0,-0.184,0.5136
0,-0.072,-0,0,-0.072,-0,0,-0.072,-0,0,-0.072,-0,0,-0.072,-0,0,-0.072,-0,0.1024,0.2192
0.016,0.016,Inf,0,0,NaN,0,0,NaN,0,0,NaN,0,0,NaN,0,0,NaN,0.1024,0.224
0.048,-0.04,-0.54545,0,-0.088,-0,0,-0.088,-0,0,-0.088,-0,0,-0.088,-0,0,-0.088,-0,-0.1488,0.3968
0,-0.04,-0,0,-0.04,-0,0,-0.04,-0,0,-0.04,-0,0,-0.04,-0,0,-0.04,-0,0.088,0.152
0.048,-0.112,-0.3,0,-0.16,-0,0,-0.16,-0,0,-0.16,-0,0,-0.16,-0,0,-0.16,-0,-0.2912,0.6224
-0.44,-0.296,-3.0556,-0.44,-0.32,-3.6667,0.176,0.272,1.8333,0.072,0.12,1.5,0,0.048,0,0,0.048,0,0.1072,0.1888
0.056,0.08,2.3333,0,0.024,0,0,0.024,0,0,0.024,0,0,0.024,0,0,0.024,0,0.08,0.1744
0.096,0.16,1.5,0.056,0.104,1.1667,0.04,0.072,1.25,0,0.032,0,0,0.032,0,0,0.032,0,0.1024,0.2368
0.144,0.08,-2.25,0.096,0.032,-1.5,0.064,0,-1,0,-0.064,-0,0,-0.064,-0,0,-0.064,-0,-0.2528,0.6112
0,0.072,0,0,0.072,0,0,0.072,0,0,0.072,0,0,0.072,0,0,0.072,0,0.1056,0.2144
0.08,0.12,2,0.032,0.048,2,0,0.016,0,0,0.016,0,0,0.016,0,0,0.016,0,0.112,0.248
0,-0.112,-0,0,-0.112,-0,0,-0.112,-0,0,-0.112,-0,0,-0.112,-0,0,-0.112,-0,-0.1776,0.4144
0,-0.048,-0,0,-0.048,-0,0,-0.048,-0,0,-0.048,-0,0,-0.048,-0,0,-0.048,-0,0.096,0.3344
0.072,0.12,1.5,0.024,0.04,1.5,0,0.016,0,0,0.016,0,0,0.016,0,0,0.016,0,0.1152,0.2208
0,-0.056,-0,0,-0.056,-0,0,-0.056,-0,0,-0.056,-0,0,-0.056,-0,0,-0.056,-0,-0.2816,0.6688
0,-0.112,-0,0,-0.112,-0,0,-0.112,-0,0,-0.112,-0,0,-0.112,-0,0,-0.112,-0,-0.2768,0.6352
0.12,0,-1,0.08,-0.04,-0.66667,0.048,-0.072,-0.4,0,-0.12,-0,0,-0.12,-0,0,-0.12,-0,-0.224,0.5552
0.408,0.552,2.8333,0.184,0.288,1.7692,0.136,0.224,1.5455,0.056,0.096,1.4,0,0.04,0,0,0.04,0,0.1536,0.4224
0.088,0.04,-1.8333,0.088,0.04,-1.8333,0.088,0.04,-1.8333,0.096,0.048,-2,0,-0.048,-0,0,-0.048,-0,-0.2992,0.7392
0,-0.04,-0,0,-0.04,-0,0,-0.04,-0,0,-0.04,-0,0,-0.04,-0,0,-0.04,-0,0.104,0.2784
0.128,0.2,1.7778,0.08,0.128,1.6667,0.056,0.088,1.75,0,0.032,0,0,0.032,0,0,0.032,0,0.1056,0.232
0.08,0.128,1.6667,0.032,0.048,2,0,0.016,0,0,0.016,0,0,0.016,0,0,0.016,0,0.12,0.3824
0,-0.152,-0,0,-0.152,-0,0,-0.152,-0,0,-0.152,-0,0,-0.152,-0,0,-0.152,-0,0.088,0.24
0.088,0.144,1.5714,0.032,0.048,2,0,0.016,0,0,0.016,0,0,0.016,0,0,0.016,0,0.1264,0.4608
0,-0.304,-0,0,-0.304,-0,0,-0.304,-0,0,-0.304,-0,0,-0.304,-0,0,-0.304,-0,0.0976,0.2304
-0.096,0.056,-0.63158,-0.096,0.056,-0.63158,-0.096,0.056,-0.63158,-0.096,0.056,-0.63158,-0.096,0.056,-0.63158,-0.096,0.056,-0.63158,0.1264,0.3792
-0.072,0.056,-0.5625,-0.072,0.024,-0.75,0.152,0.224,2.1111,0.04,0.064,1.6667,0,0.024,0,0,0.024,0,0.0752,0.1536
0,0.24,0,0,0.24,0,0,0.24,0,0,0.24,0,0,0.24,0,0,0.24,0,0.1328,0.3696
0,-0.16,-0,0,-0.16,-0,0,-0.16,-0,0,-0.16,-0,0,-0.16,-0,0,-0.16,-0,-0.2784,0.7088
0.08,0.12,2,0,0.04,0,0,0.04,0,0,0.04,0,0,0.04,0,0,0.04,0,0.0896,0.1712
0.192,0.072,-1.6,0.12,0,-1,0.088,-0.032,-0.73333,0,-0.12,-0,0,-0.12,-0,0,-0.12,-0,-0.2432,0.6
0,-0.2,-0,0,-0.2,-0,0,-0.2,-0,0,-0.2,-0,0,-0.2,-0,0,-0.2,-0,-0.24,0.5728
0,-0.016,-0,0,-0.016,-0,0,-0.016,-0,0,-0.016,-0,0,-0.016,-0,0,-0.016,-0,0.0848,0.2464
0.16,-0.096,-0.625,0.104,-0.152,-0.40625,0.08,-0.176,-0.3125,0.024,-0.232,-0.09375,0,-0.256,-0,0,-0.256,-0,-0.208,0.5056
0.104,-0.152,-0.40625,0.064,-0.192,-0.25,0,-0.256,-0,0,-0.256,-0,0,-0.256,-0,0,-0.256,-0,-0.2608,0.6256
0,-0.112,-0,0,-0.112,-0,0,-0.112,-0,0,-0.112,-0,0,-0.112,-0,0,-0.112,-0,0.0928,0.2
0,-0.184,-0,0,-0.184,-0,0,-0.184,-0,0,-0.184,-0,0,-0.184,-0,0,-0.184,-0,0.08,0.2496
0.088,0.136,1.8333,0.048,0.072,2,0,0.024,0,0,0.024,0,0,0.024,0,0,0.024,0,0.1056,0.2272
0.464,0.024,-1.0545,0.464,0.024,-1.0545,0.464,0.024,-1.0545,0.32,-0.12,-0.72727,0.272,-0.168,-0.61818,0,-0.44,-0,-0.2192,0.6352
0.104,-0.392,-0.20968,0.056,-0.44,-0.1129,0.024,-0.472,-0.048387,0,-0.496,-0,0,-0.496,-0,0,-0.496,-0,-0.2288,0.5712
0.088,-0.384,-0.18644,0.048,-0.424,-0.10169,0,-0.472,-0,0,-0.472,-0,0,-0.472,-0,0,-0.472,-0,-0.4704,1.08
0,-0.48,-0,0,-0.48,-0,0,-0.48,-0,0,-0.48,-0,0,-0.48,-0,0,-0.48,-0,-0.28,0.6096
0,-0.552,-0,0,-0.552,-0,0,-0.552,-0,0,-0.552,-0,0,-0.552,-0,0,-0.552,-0,-0.3248,0.8144
-0.136,0.008,-0.94444,-0.136,0.008,-0.94444,-0.136,0.008,-0.94444,-0.136,0.008,-0.94444,0.072,0.112,1.8,0,0.04,0,0.1184,0.3872
0.112,0.168,2,0.048,0.072,2,0,0.024,0,0,0.024,0,0,0.024,0,0,0.024,0,0.1136,0.2544
0.032,0.04,4,0,0.008,0,0,0.008,0,0,0.008,0,0,0.008,0,0,0.008,0,-0.3568,0.6992
-0.032,0.12,-0.21053,0.192,0.28,2.1818,0.12,0.184,1.875,0,0.064,0,0,0.064,0,0,0.064,0,0.1056,0.2976
0.344,0.368,14.333,0.136,0.16,5.6667,0.104,0.128,4.3333,0.024,0.048,1,0,0.024,0,0,0.024,0,-0.5808,1.2032
-0.072,0.056,-0.5625,-0.072,0.056,-0.5625,-0.072,0.056,-0.5625,0,0.128,0,0,0.128,0,0,0.128,0,0.176,0.3104
0.12,0.192,1.6667,0.072,0.112,1.8,0.032,0.04,4,0,0.008,0,0,0.008,0,0,0.008,0,0.1504,0.328
-0.048,0.016,-0.75,0.056,0.096,1.4,0,0.04,0,0,0.04,0,0,0.04,0,0,0.04,0,0.1088,0.2896
0,-0.2,-0,0,-0.2,-0,0,-0.2,-0,0,-0.2,-0,0,-0.2,-0,0,-0.2,-0,0.0704,0.2176
0.112,0.16,2.3333,0,0.048,0,0,0.048,0,0,0.048,0,0,0.048,0,0,0.048,0,0.1008,0.2528
0.104,0.152,2.1667,0,0.048,0,0,0.048,0,0,0.048,0,0,0.048,0,0,0.048,0,0.0832,0.288
0.112,0.128,7,0,0.016,0,0,0.016,0,0,0.016,0,0,0.016,0,0,0.016,0,0.0976,0.376
0.024,0.032,3,0,0.008,0,0,0.008,0,0,0.008,0,0,0.008,0,0,0.008,0,0.1456,0.3056
0.04,0.072,1.25,0,0.032,0,0,0.032,0,0,0.032,0,0,0.032,0,0,0.032,0,0.1008,0.2624
0.152,0.216,2.375,0.152,0.216,2.375,0.112,0.176,1.75,0,0.064,0,0,0.064,0,0,0.064,0,0.0896,0.2352
0,0.208,0,0,0.208,0,0,0.208,0,0,0.208,0,0,0.208,0,0,0.208,0,0.0928,0.2752
0.152,0.176,6.3333,0.112,0.136,4.6667,0.088,0.112,3.6667,0,0.024,0,0,0.024,0,0,0.024,0,-0.2256,0.5216
0.104,0.16,1.8571,0.032,0.056,1.3333,0,0.024,0,0,0.024,0,0,0.024,0,0,0.024,0,0.1312,0.4176
0.152,0.216,2.375,0.096,0.144,2,0.064,0.096,2,0,0.032,0,0,0.032,0,0,0.032,0,0.0768,0.2896
0,-0.232,-0,0,-0.232,-0,0,-0.232,-0,0,-0.232,-0,0,-0.232,-0,0,-0.232,-0,0.056,0.176
0,-0.08,-0,0,-0.08,-0,0,-0.08,-0,0,-0.08,-0,0,-0.08,-0,0,-0.08,-0,0.0944,0.1792
0,0.176,0,0,0.176,0,0,0.176,0,0,0.176,0,0,0.176,0,0,0.176,0,0.0848,0.2096
0,0.056,0,0,0.056,0,0,0.056,0,0,0.056,0,0,0.056,0,0,0.056,0,0.1072,0.2384
0,-0.328,-0,0,-0.328,-0,0,-0.328,-0,0,-0.328,-0,0,-0.328,-0,0,-0.328,-0,-0.4896,1.1648
0.104,0.192,1.1818,0,0.088,0,0,0.088,0,0,0.088,0,0,0.088,0,0,0.088,0,0.1776,0.3952
0.088,0.152,1.375,0.032,0.056,1.3333,0,0.024,0,0,0.024,0,0,0.024,0,0,0.024,0,0.1456,0.448
0.016,0.024,2,0,0.008,0,0,0.008,0,0,0.008,0,0,0.008,0,0,0.008,0,0.1456,0.4176
0,0.088,0,0,0.088,0,0,0.088,0,0,0.088,0,0,0.088,0,0,0.088,0,0.1072,0.4512
0,-0.72,-0,0,-0.72,-0,0,-0.72,-0,0,-0.72,-0,0,-0.72,-0,0,-0.72,-0,-0.184,0.4496
0.128,-0.264,-0.32653,0.072,-0.32,-0.18367,0.04,-0.352,-0.10204,0,-0.392,-0,0,-0.392,-0,0,-0.392,-0,-0.368,0.9456
0.048,0.072,2,0,0.024,0,0,0.024,0,0,0.024,0,0,0.024,0,0,0.024,0,0.1392,0.4592
0,0.504,0,0,0.504,0,0,0.504,0,0,0.504,0,0,0.504,0,0,0.504,0,0.16,0.2
0.144,0.032,-1.2857,0.096,-0.016,-0.85714,0.056,-0.056,-0.5,0,-0.112,-0,0,-0.112,-0,0,-0.112,-0,-0.184,0.5136
0.12,0.176,2.1429,0.072,0.112,1.8,0.04,0.056,2.5,0,0.016,0,0,0.016,0,0,0.016,0,0.0992,0.3184
0.144,0.208,2.25,0.08,0.12,2,0.032,0.048,2,0,0.016,0,0,0.016,0,0,0.016,0,0.0784,0.2368
0.104,-0.512,-0.16883,0.04,-0.576,-0.064935,0,-0.616,-0,0,-0.616,-0,0,-0.616,-0,0,-0.616,-0,-0.232,0.4816
0,-0.696,-0,0,-0.696,-0,0,-0.696,-0,0,-0.696,-0,0,-0.696,-0,0,-0.696,-0,0.064,0.1488
0.104,0.168,1.625,0.04,0.064,1.6667,0,0.024,0,0,0.024,0,0,0.024,0,0,0.024,0,0.0832,0.1616
0,-0.008,-0,0,-0.008,-0,0,-0.008,-0,0,-0.008,-0,0,-0.008,-0,0,-0.008,-0,0.0864,0.0864
0.112,0.168,2,0.048,0.08,1.5,0,0.032,0,0,0.032,0,0,0.032,0,0,0.032,0,0.1024,0.28
0.08,0.136,1.4286,0,0.056,0,0,0.056,0,0,0.056,0,0,0.056,0,0,0.056,0,0.1488,0.392
0.016,0.016,Inf,0,0,NaN,0,0,NaN,0,0,NaN,0,0,NaN,0,0,NaN,0.1248,0.2256
0,-0.176,-0,0,-0.176,-0,0,-0.176,-0,0,-0.176,-0,0,-0.176,-0,0,-0.176,-0,0.1328,0.2896
0.088,0.152,1.375,0,0.064,0,0,0.064,0,0,0.064,0,0,0.064,0,0,0.064,0,0.104,0.2864
0.088,0.144,1.5714,0.032,0.04,4,0,0.008,0,0,0.008,0,0,0.008,0,0,0.008,0,0.192,0.6288
0.104,0.168,1.625,0.064,0.104,1.6,0,0.04,0,0,0.04,0,0,0.04,0,0,0.04,0,0.144,0.3968
0.096,0.16,1.5,0.04,0.072,1.25,0,0.032,0,0,0.032,0,0,0.032,0,0,0.032,0,0.1408,0.4512
0.128,0.216,1.4545,0.08,0.136,1.4286,0.048,0.08,1.5,0,0.032,0,0,0.032,0,0,0.032,0,0.1824,0.5536
0.112,0.208,1.1667,0.064,0.112,1.3333,0.032,0.056,1.3333,0,0.024,0,0,0.024,0,0,0.024,0,0.1408,0.3456
0.096,-0.072,-0.57143,0.048,-0.12,-0.28571,0,-0.168,-0,0,-0.168,-0,0,-0.168,-0,0,-0.168,-0,-0.512,1.192
0.048,-0.152,-0.24,0,-0.2,-0,0,-0.2,-0,0,-0.2,-0,0,-0.2,-0,0,-0.2,-0,-0.2416,0.6112
0,-0.176,-0,0,-0.176,-0,0,-0.176,-0,0,-0.176,-0,0,-0.176,-0,0,-0.176,-0,0.1136,0.2848
0.12,0.192,1.6667,0.064,0.112,1.3333,0.024,0.032,3,0,0.008,0,0,0.008,0,0,0.008,0,0.152,0.2368
0,0.216,0,0,0.216,0,0,0.216,0,0,0.216,0,0,0.216,0,0,0.216,0,0.1632,0.3792
0.104,0.184,1.3,0.056,0.104,1.1667,0,0.048,0,0,0.048,0,0,0.048,0,0,0.048,0,0.1488,0.4352
0.056,0.096,1.4,0,0.04,0,0,0.04,0,0,0.04,0,0,0.04,0,0,0.04,0,0.0912,0.232
0.168,0.088,-2.1,0.104,0.024,-1.3,0.08,0,-1,0,-0.08,-0,0,-0.08,-0,0,-0.08,-0,-0.4368,1.0064
0.096,0.032,-1.5,0.04,-0.024,-0.625,0,-0.064,-0,0,-0.064,-0,0,-0.064,-0,0,-0.064,-0,-0.5152,1.2032
0.088,0.144,1.5714,0,0.056,0,0,0.056,0,0,0.056,0,0,0.056,0,0,0.056,0,0.1792,0.5312
0.136,0.216,1.7,0.088,0.144,1.5714,0.048,0.08,1.5,0,0.032,0,0,0.032,0,0,0.032,0,0.144,0.4064
0.112,0.16,2.3333,0.048,0.072,2,0,0.024,0,0,0.024,0,0,0.024,0,0,0.024,0,0.1312,0.4496
0,-0.096,-0,0,-0.096,-0,0,-0.096,-0,0,-0.096,-0,0,-0.096,-0,0,-0.096,-0,0.152,0.4176
0.064,0.12,1.1429,0,0.056,0,0,0.056,0,0,0.056,0,0,0.056,0,0,0.056,0,0.1328,0.3168
0.2,-0.264,-0.43103,0.096,-0.368,-0.2069,0.072,-0.392,-0.15517,0,-0.464,-0,0,-0.464,-0,0,-0.464,-0,-0.2656,0.5568
0.08,-0.344,-0.18868,0.032,-0.392,-0.075472,0,-0.424,-0,0,-0.424,-0,0,-0.424,-0,0,-0.424,-0,-0.344,0.7008
0.096,-0.256,-0.27273,0.056,-0.296,-0.15909,0,-0.352,-0,0,-0.352,-0,0,-0.352,-0,0,-0.352,-0,-0.192,0.552
0.072,0.12,1.5,0.024,0.032,3,0,0.008,0,0,0.008,0,0,0.008,0,0,0.008,0,0.112,0.2912
0.096,0.16,1.5,0.04,0.064,1.6667,0,0.024,0,0,0.024,0,0,0.024,0,0,0.024,0,0.168,0.5616
0.072,0.12,1.5,0,0.048,0,0,0.048,0,0,0.048,0,0,0.048,0,0,0.048,0,0.1104,0.3408
0.112,-0.488,-0.18667,0.072,-0.528,-0.12,0.04,-0.56,-0.066667,0,-0.6,-0,0,-0.6,-0,0,-0.6,-0,-0.4896,1.0464
0.112,0.184,1.5556,0.056,0.104,1.1667,0.008,0.008,Inf,0,0,NaN,0,0,NaN,0,0,NaN,0.1424,0.3088
0.104,0.168,1.625,0.056,0.096,1.4,0.016,0.016,Inf,0,0,NaN,0,0,NaN,0,0,NaN,0.1168,0.304
0.104,-0.472,-0.18056,0.064,-0.512,-0.11111,0.016,-0.56,-0.027778,0,-0.576,-0,0,-0.576,-0,0,-0.576,-0,-0.304,0.7792
0.128,-0.408,-0.23881,0.088,-0.448,-0.16418,0.064,-0.472,-0.1194,0,-0.536,-0,0,-0.536,-0,0,-0.536,-0,-0.4384,0.976
0,-0.544,-0,0,-0.544,-0,0,-0.544,-0,0,-0.544,-0,0,-0.544,-0,0,-0.544,-0,-0.32,0.7744
0.12,-0.504,-0.19231,0.072,-0.552,-0.11538,0.056,-0.568,-0.089744,0,-0.624,-0,0,-0.624,-0,0,-0.624,-0,-0.3072,0.728
0,-0.632,-0,0,-0.632,-0,0,-0.632,-0,0,-0.632,-0,0,-0.632,-0,0,-0.632,-0,0.0944,0.2656
0,-0.368,-0,0,-0.368,-0,0,-0.368,-0,0,-0.368,-0,0,-0.368,-0,0,-0.368,-0,0.0896,0.232
0.08,0.144,1.25,0.032,0.056,1.3333,0,0.024,0,0,0.024,0,0,0.024,0,0,0.024,0,0.1552,0.3952
0.16,0.32,1,0.392,0.552,2.45,0.248,0.408,1.55,0.112,0.208,1.1667,0.04,0.072,1.25,0,0.032,0,0.1712,0.4736
0,0.008,0,0,0.008,0,0,0.008,0,0,0.008,0,0,0.008,0,0,0.008,0,0.1408,0.384
0.064,0.112,1.3333,0,0.048,0,0,0.048,0,0,0.048,0,0,0.048,0,0,0.048,0,0.1536,0.4416
0.088,0.16,1.2222,0.032,0.064,1,0,0.032,0,0,0.032,0,0,0.032,0,0,0.032,0,0.2016,0.536
0.16,-0.176,-0.47619,0.096,-0.24,-0.28571,0.064,-0.272,-0.19048,0,-0.336,-0,0,-0.336,-0,0,-0.336,-0,-0.5024,1.1664
0.224,0.392,1.3333,0.216,0.368,1.4211,0.104,0.176,1.4444,0,0.072,0,0,0.072,0,0,0.072,0,0.1712,0.3744
0.056,0.088,1.75,0,0.032,0,0,0.032,0,0,0.032,0,0,0.032,0,0,0.032,0,0.1808,0.4864
0.128,-0.144,-0.47059,0.064,-0.208,-0.23529,0,-0.272,-0,0,-0.272,-0,0,-0.272,-0,0,-0.272,-0,-0.5008,1.2096
0,0.056,0,0,0.056,0,0,0.056,0,0,0.056,0,0,0.056,0,0,0.056,0,0.12,0.3936
0.096,-0.064,-0.6,0.024,-0.136,-0.15,0,-0.16,-0,0,-0.16,-0,0,-0.16,-0,0,-0.16,-0,-0.5152,1.2192
0.144,0.248,1.3846,0.088,0.16,1.2222,0.056,0.104,1.1667,0,0.048,0,0,0.048,0,0,0.048,0,0.2032,0.7136
0.16,0.272,1.4286,0.072,0.136,1.125,0,0.064,0,0,0.064,0,0,0.064,0,0,0.064,0,0.1632,0.5024
0.096,0.16,1.5,0,0.064,0,0,0.064,0,0,0.064,0,0,0.064,0,0,0.064,0,0.1568,0.5008
0.144,0.24,1.5,0.088,0.16,1.2222,0.064,0.112,1.3333,0,0.048,0,0,0.048,0,0,0.048,0,0.192,0.584
0.168,-0.48,-0.25926,0.112,-0.536,-0.17284,0.08,-0.568,-0.12346,0,-0.648,-0,0,-0.648,-0,0,-0.648,-0,-0.544,1.2848
0.096,-0.544,-0.15,0.024,-0.616,-0.0375,0,-0.64,-0,0,-0.64,-0,0,-0.64,-0,0,-0.64,-0,-0.6272,1.4416
0,-0.392,-0,0,-0.392,-0,0,-0.392,-0,0,-0.392,-0,0,-0.392,-0,0,-0.392,-0,0.264,0.44
0,-0.448,-0,0,-0.448,-0,0,-0.448,-0,0,-0.448,-0,0,-0.448,-0,0,-0.448,-0,0.1056,0.2576
0,-0.24,-0,0,-0.24,-0,0,-0.24,-0,0,-0.24,-0,0,-0.24,-0,0,-0.24,-0,0.1616,0.2768
0,-0.432,-0,0,-0.432,-0,0,-0.432,-0,0,-0.432,-0,0,-0.432,-0,0,-0.432,-0,0.1664,0.3376
0.112,-0.512,-0.17949,0.048,-0.576,-0.076923,0,-0.624,-0,0,-0.624,-0,0,-0.624,-0,0,-0.624,-0,-0.4656,1.088
0,-0.6,-0,0,-0.6,-0,0,-0.6,-0,0,-0.6,-0,0,-0.6,-0,0,-0.6,-0,0.0992,0.2912
0,-0.656,-0,0,-0.656,-0,0,-0.656,-0,0,-0.656,-0,0,-0.656,-0,0,-0.656,-0,-0.216,0.6064
0.136,0.224,1.5455,0.08,0.144,1.25,0.048,0.088,1.2,0,0.04,0,0,0.04,0,0,0.04,0,0.192,0.4848
0.128,0.208,1.6,0.064,0.104,1.6,0,0.04,0,0,0.04,0,0,0.04,0,0,0.04,0,0.2016,0.76
0.12,-0.648,-0.15625,0.064,-0.704,-0.083333,0,-0.768,-0,0,-0.768,-0,0,-0.768,-0,0,-0.768,-0,-0.4576,1.0592
0.104,-0.656,-0.13684,0,-0.76,-0,0,-0.76,-0,0,-0.76,-0,0,-0.76,-0,0,-0.76,-0,-0.5376,1.2592
0.064,-0.584,-0.098765,0,-0.648,-0,0,-0.648,-0,0,-0.648,-0,0,-0.648,-0,0,-0.648,-0,-0.6432,1.4832
0.096,0.16,1.5,0,0.064,0,0,0.064,0,0,0.064,0,0,0.064,0,0,0.064,0,0.1808,0.5344
0,-0.672,-0,0,-0.672,-0,0,-0.672,-0,0,-0.672,-0,0,-0.672,-0,0,-0.672,-0,0.1584,0.264
0.072,0.128,1.2857,0,0.056,0,0,0.056,0,0,0.056,0,0,0.056,0,0,0.056,0,0.1952,0.5904
0.192,-0.048,-0.8,0.088,-0.152,-0.36667,0.056,-0.184,-0.23333,0,-0.24,-0,0,-0.24,-0,0,-0.24,-0,-0.6192,1.2896
0.112,-0.128,-0.46667,0.032,-0.208,-0.13333,0,-0.24,-0,0,-0.24,-0,0,-0.24,-0,0,-0.24,-0,-0.5344,1.2368
0.088,0.144,1.5714,0.048,0.104,0.85714,0.024,0.032,3,0,0.008,0,0,0.008,0,0,0.008,0,0.088,0.2112
0.064,0.008,-1.1429,0,-0.056,-0,0,-0.056,-0,0,-0.056,-0,0,-0.056,-0,0,-0.056,-0,-0.3296,0.7888
0.112,0.192,1.4,0.056,0.096,1.4,0,0.04,0,0,0.04,0,0,0.04,0,0,0.04,0,0.1488,0.3712
-0.096,-0.008,-1.0909,0,0.088,0,0,0.088,0,0,0.088,0,0,0.088,0,0,0.088,0,0.1664,0.456
0.216,0.072,-1.5,0.12,-0.024,-0.83333,0.072,-0.072,-0.5,0,-0.144,-0,0,-0.144,-0,0,-0.144,-0,-0.4352,0.9216
0.12,0.208,1.3636,0.04,0.072,1.25,0,0.032,0,0,0.032,0,0,0.032,0,0,0.032,0,0.2112,0.5408
0.128,0.008,-1.0667,0.048,-0.072,-0.4,0,-0.12,-0,0,-0.12,-0,0,-0.12,-0,0,-0.12,-0,-0.3072,0.7968
0.12,0.208,1.3636,0.048,0.096,1,0,0.048,0,0,0.048,0,0,0.048,0,0,0.048,0,0.2128,0.6624
0.128,0.216,1.4545,0.056,0.104,1.1667,0,0.048,0,0,0.048,0,0,0.048,0,0,0.048,0,0.2096,0.6064
0.12,0.2,1.5,0.048,0.08,1.5,0,0.032,0,0,0.032,0,0,0.032,0,0,0.032,0,0.2032,0.6416
0.128,0.208,1.6,0.048,0.08,1.5,0,0.032,0,0,0.032,0,0,0.032,0,0,0.032,0,0.208,0.6848
0.136,-0.136,-0.5,0.064,-0.208,-0.23529,0.016,-0.256,-0.058824,0,-0.272,-0,0,-0.272,-0,0,-0.272,-0,-0.36,0.8864
-0.416,-0.376,-10.4,-0.416,-0.4,-26,0,0.016,0,0,0.016,0,0,0.016,0,0,0.016,0,0.1024,0.272
0.136,-0.232,-0.36957,0.08,-0.288,-0.21739,0.016,-0.352,-0.043478,0,-0.368,-0,0,-0.368,-0,0,-0.368,-0,-0.2848,0.6816
0.184,-0.016,-0.92,0.112,-0.088,-0.56,0.08,-0.12,-0.4,0,-0.2,-0,0,-0.2,-0,0,-0.2,-0,-0.2992,0.7104
0,-0.368,-0,0,-0.368,-0,0,-0.368,-0,0,-0.368,-0,0,-0.368,-0,0,-0.368,-0,0.1104,0.1888
0.096,-0.376,-0.20339,0,-0.472,-0,0,-0.472,-0,0,-0.472,-0,0,-0.472,-0,0,-0.472,-0,-0.3952,0.848
0.088,0.144,1.5714,0,0.056,0,0,0.056,0,0,0.056,0,0,0.056,0,0,0.056,0,0.1056,0.3056
0.128,-0.04,-0.7619,0.088,-0.08,-0.52381,0.056,-0.112,-0.33333,0,-0.168,-0,0,-0.168,-0,0,-0.168,-0,-0.2768,0.6864
0,-0.16,-0,0,-0.16,-0,0,-0.16,-0,0,-0.16,-0,0,-0.16,-0,0,-0.16,-0,0.0656,0.1552
0,-0.04,-0,0,-0.04,-0,0,-0.04,-0,0,-0.04,-0,0,-0.04,-0,0,-0.04,-0,0.104,0.2864
0.08,0.016,-1.25,0,-0.064,-0,0,-0.064,-0,0,-0.064,-0,0,-0.064,-0,0,-0.064,-0,-0.4672,1.0688
0.088,-0.064,-0.57895,0.424,0.272,-2.7895,0.224,0.072,-1.4737,0,-0.152,-0,0,-0.152,-0,0,-0.152,-0,-0.4432,1.0016
0,-0.208,-0,0,-0.208,-0,0,-0.208,-0,0,-0.208,-0,0,-0.208,-0,0,-0.208,-0,-0.6112,1.4496
0.048,0.08,1.5,0,0.032,0,0,0.032,0,0,0.032,0,0,0.032,0,0,0.032,0,0.1184,0.3296
0,-0.112,-0,0,-0.112,-0,0,-0.112,-0,0,-0.112,-0,0,-0.112,-0,0,-0.112,-0,0.1856,0.5504
0,-0.008,-0,0,-0.008,-0,0,-0.008,-0,0,-0.008,-0,0,-0.008,-0,0,-0.008,-0,0.0784,0.2816
0,-0.264,-0,0,-0.264,-0,0,-0.264,-0,0,-0.264,-0,0,-0.264,-0,0,-0.264,-0,0.08,0.3088
0,0.12,0,0,0.12,0,0,0.12,0,0,0.12,0,0,0.12,0,0,0.12,0,0.1744,0.5088
0,-0.128,-0,0,-0.128,-0,0,-0.128,-0,0,-0.128,-0,0,-0.128,-0,0,-0.128,-0,0.1152,0.3952
0.08,0.128,1.6667,0,0.048,0,0,0.048,0,0,0.048,0,0,0.048,0,0,0.048,0,0.1664,0.504
0.072,-0.28,-0.20455,0,-0.352,-0,0,-0.352,-0,0,-0.352,-0,0,-0.352,-0,0,-0.352,-0,-0.504,1.128
0.088,0.152,1.375,0,0.064,0,0,0.064,0,0,0.064,0,0,0.064,0,0,0.064,0,0.1456,0.512
0,0.424,0,0,0.424,0,0,0.424,0,0,0.424,0,0,0.424,0,0,0.424,0,0.08,0.2832
0.112,-0.016,-0.875,0.04,-0.088,-0.3125,0,-0.128,-0,0,-0.128,-0,0,-0.128,-0,0,-0.128,-0,-0.5792,1.3472
0.128,0.064,-2,0.056,-0.008,-0.875,0,-0.064,-0,0,-0.064,-0,0,-0.064,-0,0,-0.064,-0,-0.5712,1.2768
0.12,0.096,-5,0.056,0.032,-2.3333,0,-0.024,-0,0,-0.024,-0,0,-0.024,-0,0,-0.024,-0,-0.5952,1.3696
0,0.048,0,0,0.048,0,0,0.048,0,0,0.048,0,0,0.048,0,0,0.048,0,0.1744,0.5824
0.152,0.24,1.7273,0.096,0.16,1.5,0.04,0.08,1,0,0.04,0,0,0.04,0,0,0.04,0,0.1408,0.5136
0.128,-0.192,-0.4,0.072,-0.248,-0.225,0.016,-0.304,-0.05,0,-0.32,-0,0,-0.32,-0,0,-0.32,-0,-0.6112,1.3952
0.176,-0.216,-0.44898,0.112,-0.28,-0.28571,0.056,-0.336,-0.14286,0,-0.392,-0,0,-0.392,-0,0,-0.392,-0,-0.496,1.1264
0.176,0.24,2.75,0.064,0.096,2,0,0.032,0,0,0.032,0,0,0.032,0,0,0.032,0,0.128,0.5136
0.096,0.144,2,0.04,0.064,1.6667,0,0.024,0,0,0.024,0,0,0.024,0,0,0.024,0,0.0992,0.2576
0.128,0.2,1.7778,0.056,0.096,1.4,0,0.04,0,0,0.04,0,0,0.04,0,0,0.04,0,0.1552,0.4928
0.136,0.192,2.4286,0.064,0.096,2,0,0.032,0,0,0.032,0,0,0.032,0,0,0.032,0,0.1136,0.4464
0.136,0.088,-2.8333,0.072,0.024,-1.5,0.024,-0.024,-0.5,0,-0.048,-0,0,-0.048,-0,0,-0.048,-0,-0.5952,1.352
0.08,0.112,2.5,0,0.032,0,0,0.032,0,0,0.032,0,0,0.032,0,0,0.032,0,0.128,0.4976
0.104,-0.608,-0.14607,0.032,-0.68,-0.044944,0,-0.712,-0,0,-0.712,-0,0,-0.712,-0,0,-0.712,-0,-0.5568,1.2656
0.128,0.2,1.7778,0.064,0.112,1.3333,0.016,0.032,1,0,0.016,0,0,0.016,0,0,0.016,0,0.1664,0.5248
0.072,0.12,1.5,0,0.048,0,0,0.048,0,0,0.048,0,0,0.048,0,0,0.048,0,0.1712,0.5328
0.024,0.032,3,0,0.008,0,0,0.008,0,0,0.008,0,0,0.008,0,0,0.008,0,0.1664,0.4384
0.136,0.216,1.7,0.08,0.136,1.4286,0.04,0.064,1.6667,0,0.024,0,0,0.024,0,0,0.024,0,0.1632,0.5216
0.104,0.168,1.625,0,0.064,0,0,0.064,0,0,0.064,0,0,0.064,0,0,0.064,0,0.1824,0.5792
0.12,0.192,1.6667,0.064,0.112,1.3333,0.016,0.032,1,0,0.016,0,0,0.016,0,0,0.016,0,0.1328,0.4704
0.112,0.04,-1.5556,0.064,-0.008,-0.88889,0.016,-0.056,-0.22222,0,-0.072,-0,0,-0.072,-0,0,-0.072,-0,-0.5248,1.2064
0.088,0.152,1.375,0.024,0.048,1,0,0.024,0,0,0.024,0,0,0.024,0,0,0.024,0,0.168,0.536
0.128,0.216,1.4545,0,0.088,0,0,0.088,0,0,0.088,0,0,0.088,0,0,0.088,0,0.2544,0.4496
0.112,0.224,1,0.032,0.064,1,0,0.032,0,0,0.032,0,0,0.032,0,0,0.032,0,0.256,0.5136
0.064,-0.376,-0.14545,0.008,-0.432,-0.018182,0,-0.44,-0,0,-0.44,-0,0,-0.44,-0,0,-0.44,-0,-0.5312,1.1232
0,-0.448,-0,0,-0.448,-0,0,-0.448,-0,0,-0.448,-0,0,-0.448,-0,0,-0.448,-0,-0.1744,0.4512
0.112,0.168,2,0.072,0.112,1.8,0.04,0.064,1.6667,0,0.024,0,0,0.024,0,0,0.024,0,0.1248,0.2944
0.08,0.12,2,0.04,0.064,1.6667,0,0.024,0,0,0.024,0,0,0.024,0,0,0.024,0,0.1264,0.2032
0.048,0.072,2,0,0.024,0,0,0.024,0,0,0.024,0,0,0.024,0,0,0.024,0,0.112,0.4496
0.08,0.12,2,0.04,0.064,1.6667,0,0.024,0,0,0.024,0,0,0.024,0,0,0.024,0,0.1152,0.48
-0.12,0.008,-0.9375,0,0.128,0,0,0.128,0,0,0.128,0,0,0.128,0,0,0.128,0,0.1568,0.4336
0.072,0.168,0.75,0.032,0.056,1.3333,0,0.024,0,0,0.024,0,0,0.024,0,0,0.024,0,0.1536,0.288
0.056,0.096,1.4,0,0.04,0,0,0.04,0,0,0.04,0,0,0.04,0,0,0.04,0,0.1152,0.4032
0.096,0.152,1.7143,0.048,0.08,1.5,0,0.032,0,0,0.032,0,0,0.032,0,0,0.032,0,0.12,0.4064
0.048,0.072,2,0,0.024,0,0,0.024,0,0,0.024,0,0,0.024,0,0,0.024,0,0.1152,0.2016
0,-0.344,-0,0,-0.344,-0,0,-0.344,-0,0,-0.344,-0,0,-0.344,-0,0,-0.344,-0,0.1104,0.2992
-0.184,-0.056,-1.4375,0.088,0.128,2.2,0,0.04,0,0,0.04,0,0,0.04,0,0,0.04,0,0.1152,0.3248
0,-0.232,-0,0,-0.232,-0,0,-0.232,-0,0,-0.232,-0,0,-0.232,-0,0,-0.232,-0,-0.256,0.576
0.104,-0.104,-0.5,0.064,-0.144,-0.30769,0.032,-0.176,-0.15385,0,-0.208,-0,0,-0.208,-0,0,-0.208,-0,-0.32,0.6912
0.072,0.112,1.8,0.032,0.048,2,0,0.016,0,0,0.016,0,0,0.016,0,0,0.016,0,0.1024,0.2416
0.096,0.152,1.7143,0.048,0.08,1.5,0.024,0.048,1,0,0.024,0,0,0.024,0,0,0.024,0,0.1152,0.2432
0,-0.12,-0,0,-0.12,-0,0,-0.12,-0,0,-0.12,-0,0,-0.12,-0,0,-0.12,-0,0.104,0.1952
0.08,0.12,2,0.04,0.056,2.5,0,0.016,0,0,0.016,0,0,0.016,0,0,0.016,0,0.1152,0.2064
0.072,0.104,2.25,0.032,0.048,2,0,0.016,0,0,0.016,0,0,0.016,0,0,0.016,0,0.1296,0.2112
0,-0.072,-0,0,-0.072,-0,0,-0.072,-0,0,-0.072,-0,0,-0.072,-0,0,-0.072,-0,-0.1824,0.5136
0,0.184,0,0,0.184,0,0,0.184,0,0,0.184,0,0,0.184,0,0,0.184,0,0.136,0.1984
0.128,0.056,-1.7778,0.072,0,-1,0.048,-0.024,-0.66667,0,-0.072,-0,0,-0.072,-0,0,-0.072,-0,-0.2432,0.5712
0.064,0.096,2,0.024,0.056,0.75,0,0.032,0,0,0.032,0,0,0.032,0,0,0.032,0,-0.208,0.5808
0,-0.096,-0,0,-0.096,-0,0,-0.096,-0,0,-0.096,-0,0,-0.096,-0,0,-0.096,-0,-0.1424,0.4304
0,-0.08,-0,0,-0.08,-0,0,-0.08,-0,0,-0.08,-0,0,-0.08,-0,0,-0.08,-0,-0.1184,0.3552
0,-0.032,-0,0,-0.032,-0,0,-0.032,-0,0,-0.032,-0,0,-0.032,-0,0,-0.032,-0,0.08,0.1376
0,0.096,0,0,0.096,0,0,0.096,0,0,0.096,0,0,0.096,0,0,0.096,0,0.1488,0.1808
0,0.08,0,0,0.08,0,0,0.08,0,0,0.08,0,0,0.08,0,0,0.08,0,0.1568,0.2
0,0.152,0,0,0.152,0,0,0.152,0,0,0.152,0,0,0.152,0,0,0.152,0,0.136,0.1728
0.04,0.064,1.6667,0,0.024,0,0,0.024,0,0,0.024,0,0,0.024,0,0,0.024,0,0.168,0.16
0.096,0.136,2.4,0,0.04,0,0,0.04,0,0,0.04,0,0,0.04,0,0,0.04,0,0.0736,0.1872
0,0.352,0,0,0.352,0,0,0.352,0,0,0.352,0,0,0.352,0,0,0.352,0,0.0848,0.2208
0,0.096,0,0,0.096,0,0,0.096,0,0,0.096,0,0,0.096,0,0,0.096,0,0.096,0.3504
0,-0.096,-0,0,-0.096,-0,0,-0.096,-0,0,-0.096,-0,0,-0.096,-0,0,-0.096,-0,0.088,0.224
0.152,0.008,-1.0556,0.096,-0.048,-0.66667,0.072,-0.072,-0.5,0,-0.144,-0,0,-0.144,-0,0,-0.144,-0,-0.2096,0.4528
0,0.096,0,0,0.096,0,0,0.096,0,0,0.096,0,0,0.096,0,0,0.096,0,0.1456,0.1936
-0.008,0.088,-0.083333,0,0.096,0,0,0.096,0,0,0.096,0,0,0.096,0,0,0.096,0,0.144,0.2128
0.176,0.248,2.4444,0.12,0.192,1.6667,0.088,0.16,1.2222,0.024,0.096,0.33333,0,0.072,0,0,0.072,0,-0.2112,0.5696
0,0.264,0,0,0.264,0,0,0.264,0,0,0.264,0,0,0.264,0,0,0.264,0,0.1264,0.3104
0,-0.144,-0,0,-0.144,-0,0,-0.144,-0,0,-0.144,-0,0,-0.144,-0,0,-0.144,-0,-0.3424,0.7904
-0.048,0.032,-0.6,-0.048,0.032,-0.6,-0.048,0.032,-0.6,0.04,0.12,0.5,0,0.08,0,0,0.08,0,0.184,0.4992
0.16,0.248,1.8182,0.096,0.152,1.7143,0,0.056,0,0,0.056,0,0,0.056,0,0,0.056,0,0.1792,0.5872
0.44,0.056,-1.1458,0.224,-0.16,-0.58333,0.128,-0.256,-0.33333,0,-0.384,-0,0,-0.384,-0,0,-0.384,-0,-0.408,0.96
0.056,0.08,2.3333,0,0.024,0,0,0.024,0,0,0.024,0,0,0.024,0,0,0.024,0,0.0752,0.2672
0.048,-0.032,-0.6,0,-0.08,-0,0,-0.08,-0,0,-0.08,-0,0,-0.08,-0,0,-0.08,-0,-0.3312,0.7504
-0.592,-0.432,-3.7,0.24,0.336,2.5,0.136,0.208,1.8889,0,0.072,0,0,0.072,0,0,0.072,0,0.1296,0.24
0,-0.112,-0,0,-0.112,-0,0,-0.112,-0,0,-0.112,-0,0,-0.112,-0,0,-0.112,-0,0.1104,0.4656
0.104,0.192,1.1818,0.048,0.096,1,0,0.048,0,0,0.048,0,0,0.048,0,0,0.048,0,0.16,0.1824
0.104,0.192,1.1818,0.048,0.096,1,0,0.048,0,0,0.048,0,0,0.048,0,0,0.048,0,0.16,0.1824
0,0.072,0,0,0.072,0,0,0.072,0,0,0.072,0,0,0.072,0,0,0.072,0,0.1792,0.4704
0.456,0.672,2.1111,0.232,0.392,1.45,0.144,0.264,1.2,0,0.12,0,0,0.12,0,0,0.12,0,0.1648,0.3376
0,-0.056,-0,0,-0.056,-0,0,-0.056,-0,0,-0.056,-0,0,-0.056,-0,0,-0.056,-0,-0.6624,1.5776
0.128,0.216,1.4545,0.064,0.112,1.3333,0,0.048,0,0,0.048,0,0,0.048,0,0,0.048,0,0.1744,0.4624
0.096,-0.464,-0.17143,0,-0.56,-0,0,-0.56,-0,0,-0.56,-0,0,-0.56,-0,0,-0.56,-0,-0.2176,0.5824
0,-0.664,-0,0,-0.664,-0,0,-0.664,-0,0,-0.664,-0,0,-0.664,-0,0,-0.664,-0,-0.3808,1.0544
0.144,0.208,2.25,0.08,0.112,2.5,0,0.032,0,0,0.032,0,0,0.032,0,0,0.032,0,0.1504,0.4384
0.144,0.208,2.25,0.08,0.112,2.5,0,0.032,0,0,0.032,0,0,0.032,0,0,0.032,0,0.1504,0.4384
0.288,-0.144,-0.66667,0.152,-0.28,-0.35185,0.12,-0.312,-0.27778,0,-0.432,-0,0,-0.432,-0,0,-0.432,-0,-0.4384,1.0336
0.24,-0.216,-0.52632,0.128,-0.328,-0.2807,0.096,-0.36,-0.21053,0,-0.456,-0,0,-0.456,-0,0,-0.456,-0,-0.4336,1.08
0.28,-0.064,-0.81395,0.152,-0.192,-0.44186,0.12,-0.224,-0.34884,0,-0.344,-0,0,-0.344,-0,0,-0.344,-0,-0.4368,1.048
0.152,0.256,1.4615,0.112,0.192,1.4,0.08,0.136,1.4286,0,0.056,0,0,0.056,0,0,0.056,0,0.1776,0.4352
0.344,-0.32,-0.51807,0.16,-0.504,-0.24096,0.112,-0.552,-0.16867,0,-0.664,-0,0,-0.664,-0,0,-0.664,-0,-0.4576,1.0192
0.16,0.256,1.6667,0.096,0.16,1.5,0.064,0.112,1.3333,0,0.048,0,0,0.048,0,0,0.048,0,0.192,0.4384
0.104,-0.248,-0.29545,0.048,-0.304,-0.13636,0,-0.352,-0,0,-0.352,-0,0,-0.352,-0,0,-0.352,-0,-0.3296,0.6736
0.112,-0.144,-0.4375,0.064,-0.192,-0.25,0.016,-0.24,-0.0625,0,-0.256,-0,0,-0.256,-0,0,-0.256,-0,-0.5504,1.3088
0,-0.4,-0,0,-0.4,-0,0,-0.4,-0,0,-0.4,-0,0,-0.4,-0,0,-0.4,-0,-0.5168,1.264
0.032,-0.256,-0.11111,0,-0.288,-0,0,-0.288,-0,0,-0.288,-0,0,-0.288,-0,0,-0.288,-0,-0.5776,1.336
0.288,0.392,2.7692,0.12,0.192,1.6667,0.08,0.136,1.4286,0,0.056,0,0,0.056,0,0,0.056,0,0.1504,0.4784
0.136,0.248,1.2143,0.08,0.152,1.1111,0.048,0.08,1.5,0,0.032,0,0,0.032,0,0,0.032,0,0.2176,0.5856
0.032,-0.592,-0.051282,0.016,-0.608,-0.025641,0,-0.624,-0,0,-0.624,-0,0,-0.624,-0,0,-0.624,-0,-0.3184,0.776
0.096,0.184,1.0909,0.048,0.088,1.2,0,0.04,0,0,0.04,0,0,0.04,0,0,0.04,0,0.1536,0.3488
0.112,-0.304,-0.26923,0.064,-0.352,-0.15385,0,-0.416,-0,0,-0.416,-0,0,-0.416,-0,0,-0.416,-0,-0.4464,1.0784
0.096,0.096,Inf,0.056,0.056,Inf,0,0,NaN,0,0,NaN,0,0,NaN,0,0,NaN,0.1136,0.2944
0.064,0.128,1,0,0.064,0,0,0.064,0,0,0.064,0,0,0.064,0,0,0.064,0,0.1568,0.3296
0.224,0.16,-3.5,0.12,0.056,-1.875,0.096,0.032,-1.5,0.016,-0.048,-0.25,0,-0.064,-0,0,-0.064,-0,-0.1872,0.4176
0.104,0.136,3.25,0,0.032,0,0,0.032,0,0,0.032,0,0,0.032,0,0,0.032,0,0.0992,0.1648
0,-0.36,-0,0,-0.36,-0,0,-0.36,-0,0,-0.36,-0,0,-0.36,-0,0,-0.36,-0,-0.224,0.5344
0.088,0.136,1.8333,0.024,0.04,1.5,0,0.016,0,0,0.016,0,0,0.016,0,0,0.016,0,0.0992,0.1776
0.08,0.12,2,0,0.04,0,0,0.04,0,0,0.04,0,0,0.04,0,0,0.04,0,0.0992,0.168
0,0.04,0,0,0.04,0,0,0.04,0,0,0.04,0,0,0.04,0,0,0.04,0,0.0736,0.1696
0,0.008,0,0,0.008,0,0,0.008,0,0,0.008,0,0,0.008,0,0,0.008,0,0.0848,0.1744
0.032,0.064,1,0,0.032,0,0,0.032,0,0,0.032,0,0,0.032,0,0,0.032,0,-0.1728,0.4912
-0.208,-0.168,-5.2,0.056,0.096,1.4,0,0.04,0,0,0.04,0,0,0.04,0,0,0.04,0,0.1056,0.2336
0.176,-0.064,-0.73333,0.08,-0.16,-0.33333,0,-0.24,-0,0,-0.24,-0,0,-0.24,-0,0,-0.24,-0,-0.5328,1.2768
0.12,0.192,1.6667,0,0.072,0,0,0.072,0,0,0.072,0,0,0.072,0,0,0.072,0,0.2288,0.5616
0.184,-0.456,-0.2875,0.048,-0.592,-0.075,0,-0.64,-0,0,-0.64,-0,0,-0.64,-0,0,-0.64,-0,-0.5808,1.4272
0.176,-0.328,-0.34921,0.072,-0.432,-0.14286,0,-0.504,-0,0,-0.504,-0,0,-0.504,-0,0,-0.504,-0,-0.488,1.1792
0,-0.368,-0,0,-0.368,-0,0,-0.368,-0,0,-0.368,-0,0,-0.368,-0,0,-0.368,-0,0.28,0.3968
0.168,0.272,1.6154,0.072,0.128,1.2857,0.016,0.024,2,0,0.008,0,0,0.008,0,0,0.008,0,0.24,0.528
0.192,0.296,1.8462,0.096,0.16,1.5,0.032,0.048,2,0,0.016,0,0,0.016,0,0,0.016,0,0.2432,0.544
0,-0.424,-0,0,-0.424,-0,0,-0.424,-0,0,-0.424,-0,0,-0.424,-0,0,-0.424,-0,0.2512,0.5472
0,-0.512,-0,0,-0.512,-0,0,-0.512,-0,0,-0.512,-0,0,-0.512,-0,0,-0.512,-0,0.208,0.4272
0.368,-0.152,-0.70769,0.216,-0.304,-0.41538,0.144,-0.376,-0.27692,0,-0.52,-0,0,-0.52,-0,0,-0.52,-0,-0.4608,1.0544
0.232,-0.384,-0.37662,0.12,-0.496,-0.19481,0.072,-0.544,-0.11688,0,-0.616,-0,0,-0.616,-0,0,-0.616,-0,-0.4528,1.1248
0,-0.208,-0,0,-0.208,-0,0,-0.208,-0,0,-0.208,-0,0,-0.208,-0,0,-0.208,-0,0.2256,0.5184
0.224,0.312,2.5455,0.088,0.128,2.2,0,0.04,0,0,0.04,0,0,0.04,0,0,0.04,0,0.1888,0.4928
0.144,0.216,2,0,0.072,0,0,0.072,0,0,0.072,0,0,0.072,0,0,0.072,0,0.2192,0.4784
0.056,0.088,1.75,0,0.032,0,0,0.032,0,0,0.032,0,0,0.032,0,0,0.032,0,0.24,0.512
0,-0.088,-0,0,-0.088,-0,0,-0.088,-0,0,-0.088,-0,0,-0.088,-0,0,-0.088,-0,-0.4944,1.232
0.2,0.04,-1.25,0.168,0.008,-1.05,0.048,-0.112,-0.3,0,-0.16,-0,0,-0.16,-0,0,-0.16,-0,-0.3264,0.768
0.168,-0.128,-0.56757,0.024,-0.272,-0.081081,0,-0.296,-0,0,-0.296,-0,0,-0.296,-0,0,-0.296,-0,-0.528,1.2752
0.184,0.28,1.9167,0.064,0.112,1.3333,0,0.048,0,0,0.048,0,0,0.048,0,0,0.048,0,0.2272,0.5232
0.16,-0.088,-0.64516,0.008,-0.24,-0.032258,0,-0.248,-0,0,-0.248,-0,0,-0.248,-0,0,-0.248,-0,-0.5248,1.2752
0.08,-0.224,-0.26316,0,-0.304,-0,0,-0.304,-0,0,-0.304,-0,0,-0.304,-0,0,-0.304,-0,-0.4048,1.008
0.144,0.008,-1.0588,0.056,-0.08,-0.41176,0,-0.136,-0,0,-0.136,-0,0,-0.136,-0,0,-0.136,-0,-0.5136,1.2672
0.208,0.032,-1.1818,0.112,-0.064,-0.63636,0,-0.176,-0,0,-0.176,-0,0,-0.176,-0,0,-0.176,-0,-0.4128,1.0304
0.12,0.208,1.3636,0.04,0.072,1.25,0,0.032,0,0,0.032,0,0,0.032,0,0,0.032,0,0.2352,0.4608
0,-0.296,-0,0,-0.296,-0,0,-0.296,-0,0,-0.296,-0,0,-0.296,-0,0,-0.296,-0,0.2272,0.4432
0,-0.312,-0,0,-0.312,-0,0,-0.312,-0,0,-0.312,-0,0,-0.312,-0,0,-0.312,-0,0.112,0.2496
0.016,-0.44,-0.035088,0.016,-0.44,-0.035088,0.016,-0.44,-0.035088,0,-0.456,-0,0,-0.456,-0,0,-0.456,-0,-0.1504,0.432
0.912,0.376,-1.7015,0.128,-0.408,-0.23881,0.128,-0.408,-0.23881,0,-0.536,-0,0,-0.536,-0,0,-0.536,-0,-0.392,1.0224
0.064,-0.36,-0.15094,0.064,-0.36,-0.15094,0.016,-0.408,-0.037736,0,-0.424,-0,0,-0.424,-0,0,-0.424,-0,-0.312,0.8496
0.328,-0.184,-0.64062,0.168,-0.344,-0.32812,0.104,-0.408,-0.20312,0,-0.512,-0,0,-0.512,-0,0,-0.512,-0,-0.448,0.9392
0.08,-0.48,-0.14286,0,-0.56,-0,0,-0.56,-0,0,-0.56,-0,0,-0.56,-0,0,-0.56,-0,-0.504,1.0928
0.088,0.144,1.5714,0.016,0.016,Inf,0,0,NaN,0,0,NaN,0,0,NaN,0,0,NaN,0.208,0.5104
0.12,0.024,-1.25,0.064,-0.032,-0.66667,0.008,-0.088,-0.083333,0,-0.096,-0,0,-0.096,-0,0,-0.096,-0,-0.6064,1.4176
0.08,0.152,1.1111,0.008,0.016,1,0,0.008,0,0,0.008,0,0,0.008,0,0,0.008,0,0.1664,0.48
0.104,0.176,1.4444,0.056,0.088,1.75,0,0.032,0,0,0.032,0,0,0.032,0,0,0.032,0,0.2032,0.6224
0,-0.384,-0,0,-0.384,-0,0,-0.384,-0,0,-0.384,-0,0,-0.384,-0,0,-0.384,-0,0.12,0.2208
0,-0.56,-0,0,-0.56,-0,0,-0.56,-0,0,-0.56,-0,0,-0.56,-0,0,-0.56,-0,-0.2208,0.5824
0,-0.44,-0,0,-0.44,-0,0,-0.44,-0,0,-0.44,-0,0,-0.44,-0,0,-0.44,-0,0.08,0.208
0,-0.232,-0,0,-0.232,-0,0,-0.232,-0,0,-0.232,-0,0,-0.232,-0,0,-0.232,-0,0.136,0.2
0,-0.36,-0,0,-0.36,-0,0,-0.36,-0,0,-0.36,-0,0,-0.36,-0,0,-0.36,-0,0.1248,0.1472
0.128,-0.368,-0.25806,0.056,-0.44,-0.1129,0.032,-0.464,-0.064516,0,-0.496,-0,0,-0.496,-0,0,-0.496,-0,-0.1744,0.4304
0,-0.368,-0,0,-0.368,-0,0,-0.368,-0,0,-0.368,-0,0,-0.368,-0,0,-0.368,-0,0.0976,0.16
0.096,-0.384,-0.2,0.056,-0.424,-0.11667,0.024,-0.456,-0.05,0,-0.48,-0,0,-0.48,-0,0,-0.48,-0,-0.184,0.4592
0.088,0.144,1.5714,0.048,0.08,1.5,0,0.032,0,0,0.032,0,0,0.032,0,0,0.032,0,0.128,0.1952
0.08,-0.136,-0.37037,0.016,-0.2,-0.074074,0,-0.216,-0,0,-0.216,-0,0,-0.216,-0,0,-0.216,-0,-0.1968,0.4992
0,-0.2,-0,0,-0.2,-0,0,-0.2,-0,0,-0.2,-0,0,-0.2,-0,0,-0.2,-0,-0.1488,0.4672
0,0.024,0,0,0.024,0,0,0.024,0,0,0.024,0,0,0.024,0,0,0.024,0,0.1392,0.1616
0,-0.176,-0,0,-0.176,-0,0,-0.176,-0,0,-0.176,-0,0,-0.176,-0,0,-0.176,-0,-0.1648,0.4944
0.096,0.152,1.7143,0.048,0.08,1.5,0.016,0.016,Inf,0,0,NaN,0,0,NaN,0,0,NaN,0.136,0.2
0,-0.032,-0,0,-0.032,-0,0,-0.032,-0,0,-0.032,-0,0,-0.032,-0,0,-0.032,-0,0.1264,0.1792
0.024,-0.128,-0.15789,0,-0.152,-0,0,-0.152,-0,0,-0.152,-0,0,-0.152,-0,0,-0.152,-0,-0.2016,0.488
0,-0.04,-0,0,-0.04,-0,0,-0.04,-0,0,-0.04,-0,0,-0.04,-0,0,-0.04,-0,0.1088,0.1904
0,-0.064,-0,0,-0.064,-0,0,-0.064,-0,0,-0.064,-0,0,-0.064,-0,0,-0.064,-0,0.1248,0.1824
0,-0.192,-0,0,-0.192,-0,0,-0.192,-0,0,-0.192,-0,0,-0.192,-0,0,-0.192,-0,-0.1952,0.5392
0,0,NaN,0,0,NaN,0,0,NaN,0,0,NaN,0,0,NaN,0,0,NaN,0.1216,0.2016
0.088,0.136,1.8333,0.032,0.056,1.3333,0,0.024,0,0,0.024,0,0,0.024,0,0,0.024,0,0.1152,0.2304
0.112,0.168,2,0.064,0.096,2,0.024,0.032,3,0,0.008,0,0,0.008,0,0,0.008,0,0.1152,0.2464
0,-0.272,-0,0,-0.272,-0,0,-0.272,-0,0,-0.272,-0,0,-0.272,-0,0,-0.272,-0,0.104,0.2624
0,-0.184,-0,0,-0.184,-0,0,-0.184,-0,0,-0.184,-0,0,-0.184,-0,0,-0.184,-0,0.0992,0.3536
0,-0.232,-0,0,-0.232,-0,0,-0.232,-0,0,-0.232,-0,0,-0.232,-0,0,-0.232,-0,0.0832,0.2624
0.088,0.136,1.8333,0.048,0.08,1.5,0,0.032,0,0,0.032,0,0,0.032,0,0,0.032,0,0.0896,0.2144
0,-0.008,-0,0,-0.008,-0,0,-0.008,-0,0,-0.008,-0,0,-0.008,-0,0,-0.008,-0,0.104,0.2
0,0.304,0,0,0.304,0,0,0.304,0,0,0.304,0,0,0.304,0,0,0.304,0,0.1184,0.2048
0.128,0.184,2.2857,0.056,0.088,1.75,0,0.032,0,0,0.032,0,0,0.032,0,0,0.032,0,0.1536,0.5792
0.144,0.2,2.5714,0.08,0.12,2,0.04,0.064,1.6667,0,0.024,0,0,0.024,0,0,0.024,0,0.1056,0.3264
0,-0.168,-0,0,-0.168,-0,0,-0.168,-0,0,-0.168,-0,0,-0.168,-0,0,-0.168,-0,0.088,0.2688
0.112,0.168,2,0.064,0.096,2,0.024,0.032,3,0,0.008,0,0,0.008,0,0,0.008,0,0.1456,0.488
0.096,0.152,1.7143,0.048,0.08,1.5,0,0.032,0,0,0.032,0,0,0.032,0,0,0.032,0,0.144,0.56
0.104,-0.256,-0.28889,0.056,-0.304,-0.15556,0,-0.36,-0,0,-0.36,-0,0,-0.36,-0,0,-0.36,-0,-0.4352,0.9888
0.096,0.152,1.7143,0.04,0.064,1.6667,0,0.024,0,0,0.024,0,0,0.024,0,0,0.024,0,0.1024,0.256
0,-0.24,-0,0,-0.24,-0,0,-0.24,-0,0,-0.24,-0,0,-0.24,-0,0,-0.24,-0,0.08,0.2544
0.136,0.2,2.125,0.08,0.12,2,0.04,0.064,1.6667,0,0.024,0,0,0.024,0,0,0.024,0,0.1536,0.536
0,-0.128,-0,0,-0.128,-0,0,-0.128,-0,0,-0.128,-0,0,-0.128,-0,0,-0.128,-0,0.1072,0.2416
0.104,0.16,1.8571,0.056,0.088,1.75,0,0.032,0,0,0.032,0,0,0.032,0,0,0.032,0,0.1456,0.5312
0.096,0.144,2,0.04,0.064,1.6667,0,0.024,0,0,0.024,0,0,0.024,0,0,0.024,0,0.1024,0.248
0.088,0.136,1.8333,0.032,0.056,1.3333,0,0.024,0,0,0.024,0,0,0.024,0,0,0.024,0,0.1008,0.2432
0.128,0.192,2,0.08,0.12,2,0.032,0.048,2,0,0.016,0,0,0.016,0,0,0.016,0,0.152,0.5472
0.12,-0.128,-0.48387,0.064,-0.184,-0.25806,0.024,-0.224,-0.096774,0,-0.248,-0,0,-0.248,-0,0,-0.248,-0,-0.5616,1.2752
0.096,0.144,2,0.04,0.064,1.6667,0,0.024,0,0,0.024,0,0,0.024,0,0,0.024,0,0.096,0.2112
0.112,0.168,2,0.056,0.088,1.75,0,0.032,0,0,0.032,0,0,0.032,0,0,0.032,0,0.144,0.4976
0.096,0.152,1.7143,0.04,0.064,1.6667,0,0.024,0,0,0.024,0,0,0.024,0,0,0.024,0,0.1504,0.5104
0.12,0.176,2.1429,0.072,0.104,2.25,0.024,0.032,3,0,0.008,0,0,0.008,0,0,0.008,0,0.1504,0.5392
0.112,0.168,2,0.048,0.08,1.5,0,0.032,0,0,0.032,0,0,0.032,0,0,0.032,0,0.1536,0.5248
0.104,0.152,2.1667,0.056,0.088,1.75,0,0.032,0,0,0.032,0,0,0.032,0,0,0.032,0,0.1456,0.5312
0.096,0.144,2,0.048,0.072,2,0,0.024,0,0,0.024,0,0,0.024,0,0,0.024,0,0.1184,0.3536
0.104,0.16,1.8571,0.048,0.072,2,0,0.024,0,0,0.024,0,0,0.024,0,0,0.024,0,0.1424,0.5088
0.088,0.144,1.5714,0.04,0.064,1.6667,0,0.024,0,0,0.024,0,0,0.024,0,0,0.024,0,0.1088,0.2288
0.088,0.136,1.8333,0.04,0.064,1.6667,0,0.024,0,0,0.024,0,0,0.024,0,0,0.024,0,0.1264,0.36
0,0.12,0,0,0.12,0,0,0.12,0,0,0.12,0,0,0.12,0,0,0.12,0,0.1424,0.4144
0.136,0.192,2.4286,0.08,0.12,2,0.04,0.064,1.6667,0,0.024,0,0,0.024,0,0,0.024,0,0.1616,0.5056
0.112,0.168,2,0.04,0.072,1.25,0,0.032,0,0,0.032,0,0,0.032,0,0,0.032,0,0.1728,0.5248
0,-0.392,-0,0,-0.392,-0,0,-0.392,-0,0,-0.392,-0,0,-0.392,-0,0,-0.392,-0,0.1488,0.3008
0.096,0.152,1.7143,0.032,0.056,1.3333,0,0.024,0,0,0.024,0,0,0.024,0,0,0.024,0,0.1552,0.464
0.112,-0.2,-0.35897,0.04,-0.272,-0.12821,0,-0.312,-0,0,-0.312,-0,0,-0.312,-0,0,-0.312,-0,-0.352,0.8544
0.04,-0.312,-0.11364,0.04,-0.312,-0.11364,0.496,0.144,-1.4091,0.32,-0.032,-0.90909,0.216,-0.136,-0.61364,0.192,-0.16,-0.54545,-0.2672,0.7312
0.192,-0.16,-0.54545,0.192,-0.16,-0.54545,0.496,0.144,-1.4091,0.32,-0.032,-0.90909,0.216,-0.136,-0.61364,0.192,-0.16,-0.54545,-0.2672,0.7312
0.176,-0.12,-0.59459,0.088,-0.208,-0.2973,0.056,-0.24,-0.18919,0,-0.296,-0,0,-0.296,-0,0,-0.296,-0,-0.4704,1.1344
0.368,0.096,-1.3529,0.176,-0.096,-0.64706,0.128,-0.144,-0.47059,0.04,-0.232,-0.14706,0,-0.272,-0,0,-0.272,-0,-0.4464,1.0736
0.088,-0.168,-0.34375,0.016,-0.24,-0.0625,0,-0.256,-0,0,-0.256,-0,0,-0.256,-0,0,-0.256,-0,-0.5232,1.2208
0.096,-0.168,-0.36364,0,-0.264,-0,0,-0.264,-0,0,-0.264,-0,0,-0.264,-0,0,-0.264,-0,-0.3872,0.9248
0.08,-0.24,-0.25,0,-0.32,-0,0,-0.32,-0,0,-0.32,-0,0,-0.32,-0,0,-0.32,-0,-0.3648,0.8592
0,0.08,0,0,0.08,0,0,0.08,0,0,0.08,0,0,0.08,0,0,0.08,0,0.1664,0.44
0,-0.416,-0,0,-0.416,-0,0,-0.416,-0,0,-0.416,-0,0,-0.416,-0,0,-0.416,-0,0.144,0.1856
0,-0.296,-0,0,-0.296,-0,0,-0.296,-0,0,-0.296,-0,0,-0.296,-0,0,-0.296,-0,0.1536,0.4832
0,-0.248,-0,0,-0.248,-0,0,-0.248,-0,0,-0.248,-0,0,-0.248,-0,0,-0.248,-0,0.1072,0.3408
0,-0.08,-0,0,-0.08,-0,0,-0.08,-0,0,-0.08,-0,0,-0.08,-0,0,-0.08,-0,0.1328,0.3856
0.104,0.168,1.625,0.048,0.08,1.5,0,0.032,0,0,0.032,0,0,0.032,0,0,0.032,0,0.1664,0.5056
0.096,-0.328,-0.22642,0.048,-0.376,-0.11321,0,-0.424,-0,0,-0.424,-0,0,-0.424,-0,0,-0.424,-0,-0.4896,1.1232
0.096,-0.328,-0.22642,0.048,-0.376,-0.11321,0,-0.424,-0,0,-0.424,-0,0,-0.424,-0,0,-0.424,-0,-0.4896,1.1232
0,-0.528,-0,0,-0.528,-0,0,-0.528,-0,0,-0.528,-0,0,-0.528,-0,0,-0.528,-0,0.1232,0.3424
0.144,0.232,1.6364,0.096,0.16,1.5,0.064,0.112,1.3333,0,0.048,0,0,0.048,0,0,0.048,0,0.1008,0.256
0.08,0.144,1.25,0.032,0.048,2,0,0.016,0,0,0.016,0,0,0.016,0,0,0.016,0,0.2032,0.5472
0,-0.296,-0,0,-0.296,-0,0,-0.296,-0,0,-0.296,-0,0,-0.296,-0,0,-0.296,-0,0.1424,0.3904
0,0.112,0,0,0.112,0,0,0.112,0,0,0.112,0,0,0.112,0,0,0.112,0,0.1744,0.5376
0.096,-0.208,-0.31579,0.056,-0.248,-0.18421,0,-0.304,-0,0,-0.304,-0,0,-0.304,-0,0,-0.304,-0,-0.656,1.3744
0.088,0.176,1,0.04,0.072,1.25,0,0.032,0,0,0.032,0,0,0.032,0,0,0.032,0,0.2112,0.392
0.088,0.176,1,0.04,0.072,1.25,0,0.032,0,0,0.032,0,0,0.032,0,0,0.032,0,0.2112,0.392
0.056,0.112,1,0,0.056,0,0,0.056,0,0,0.056,0,0,0.056,0,0,0.056,0,0.096,0.1792
0.08,0.12,2,0,0.04,0,0,0.04,0,0,0.04,0,0,0.04,0,0,0.04,0,0.1568,0.2592
0.032,-0.352,-0.083333,0,-0.384,-0,0,-0.384,-0,0,-0.384,-0,0,-0.384,-0,0,-0.384,-0,-0.392,0.8944
0,-0.52,-0,0,-0.52,-0,0,-0.52,-0,0,-0.52,-0,0,-0.52,-0,0,-0.52,-0,-0.1824,0.5088
0.04,-0.52,-0.071429,0.696,0.136,-1.2429,0.48,-0.08,-0.85714,0.304,-0.256,-0.54286,0.152,-0.408,-0.27143,0.04,-0.52,-0.071429,-0.5136,1.3328
0.112,-0.384,-0.22581,0.032,-0.464,-0.064516,0,-0.496,-0,0,-0.496,-0,0,-0.496,-0,0,-0.496,-0,-0.4864,1.1376
0.264,0.4,1.9412,0.12,0.224,1.1538,0.088,0.16,1.2222,0,0.072,0,0,0.072,0,0,0.072,0,0.2256,0.6544
0,0.024,0,0,0.024,0,0,0.024,0,0,0.024,0,0,0.024,0,0,0.024,0,0.0992,0.3328
0.136,-0.328,-0.2931,0.072,-0.392,-0.15517,0.016,-0.448,-0.034483,0,-0.464,-0,0,-0.464,-0,0,-0.464,-0,-0.64,1.48
0.192,0.328,1.4118,0.088,0.176,1,0.048,0.096,1,0,0.048,0,0,0.048,0,0,0.048,0,0.2016,0.6096
0.144,0.272,1.125,0.064,0.144,0.8,0,0.08,0,0,0.08,0,0,0.08,0,0,0.08,0,0.1984,0.584
0.112,0.192,1.4,0,0.08,0,0,0.08,0,0,0.08,0,0,0.08,0,0,0.08,0,0.1856,0.5968
0.128,-0.344,-0.27119,0.072,-0.4,-0.15254,0,-0.472,-0,0,-0.472,-0,0,-0.472,-0,0,-0.472,-0,-0.4704,1.032
0.176,0.304,1.375,0.072,0.144,1,0.024,0.032,3,0,0.008,0,0,0.008,0,0,0.008,0,0.264,0.7344
0.56,0.008,-1.0145,0.512,-0.04,-0.92754,0.368,-0.184,-0.66667,0.136,-0.416,-0.24638,0,-0.552,-0,0,-0.552,-0,-0.624,1.3552
0.024,0.04,1.5,0,0.016,0,0,0.016,0,0,0.016,0,0,0.016,0,0,0.016,0,0.1104,0.2064
0.024,0.04,1.5,0,0.016,0,0,0.016,0,0,0.016,0,0,0.016,0,0,0.016,0,0.1104,0.2064
0.136,-0.048,-0.73913,0.08,-0.104,-0.43478,0.056,-0.128,-0.30435,0,-0.184,-0,0,-0.184,-0,0,-0.184,-0,-0.208,0.5264
0.192,0.104,-2.1818,0.152,0.064,-1.7273,0.128,0.04,-1.4545,0,-0.088,-0,0,-0.088,-0,0,-0.088,-0,-0.1904,0.4992
-0.008,0.088,-0.083333,-0.008,0.088,-0.083333,-0.008,0.088,-0.083333,-0.008,0.088,-0.083333,-0.008,0.088,-0.083333,0,0.096,0,0.1072,0.1648
0,0.136,0,0,0.136,0,0,0.136,0,0,0.136,0,0,0.136,0,0,0.136,0,0.1184,0.2928
0.352,0.464,3.1429,0.168,0.248,2.1,0.12,0.176,2.1429,0,0.056,0,0,0.056,0,0,0.056,0,0.1376,0.4048
0.224,0.312,2.5455,0.136,0.2,2.125,0.104,0.152,2.1667,0,0.048,0,0,0.048,0,0,0.048,0,0.1408,0.4144
0.144,0.216,2,0.088,0.136,1.8333,0.048,0.072,2,0,0.024,0,0,0.024,0,0,0.024,0,0.1472,0.4128
0.208,0.296,2.3636,0.12,0.184,1.875,0.088,0.136,1.8333,0,0.048,0,0,0.048,0,0,0.048,0,0.1424,0.4192
0.032,0.064,1,0,0.032,0,0,0.032,0,0,0.032,0,0,0.032,0,0,0.032,0,-0.3264,0.768
0,0.04,0,0,0.04,0,0,0.04,0,0,0.04,0,0,0.04,0,0,0.04,0,0.1056,0.224
0.032,0,-1,0,-0.032,-0,0,-0.032,-0,0,-0.032,-0,0,-0.032,-0,0,-0.032,-0,-0.2224,0.4432
0.16,0.104,-2.8571,0.072,0.016,-1.2857,0.04,-0.016,-0.71429,0,-0.056,-0,0,-0.056,-0,0,-0.056,-0,-0.472,1.0768
0.192,0.264,2.6667,0.112,0.16,2.3333,0.056,0.088,1.75,0,0.032,0,0,0.032,0,0,0.032,0,0.128,0.4976
0.488,0.6,4.3571,0.488,0.6,4.3571,0.488,0.6,4.3571,0.336,0.448,3,0.112,0.184,1.5556,0.04,0.064,1.6667,0.1376,0.4992
0.208,0.28,2.8889,0.104,0.144,2.6,0.032,0.048,2,0,0.016,0,0,0.016,0,0,0.016,0,0.144,0.5216
0.384,0.52,2.8235,0.216,0.304,2.4545,0.152,0.232,1.9,0.072,0.104,2.25,0,0.032,0,0,0.032,0,0.1568,0.4976
0.192,0.296,1.8462,0.112,0.184,1.5556,0.08,0.136,1.4286,0,0.056,0,0,0.056,0,0,0.056,0,0.1536,0.4336
0,0.064,0,0,0.064,0,0,0.064,0,0,0.064,0,0,0.064,0,0,0.064,0,0.1152,0.3216
0.112,0.192,1.4,0.064,0.112,1.3333,0.008,0.008,Inf,0,0,NaN,0,0,NaN,0,0,NaN,0.1888,0.4736
0.016,0.032,1,0,0.016,0,0,0.016,0,0,0.016,0,0,0.016,0,0,0.016,0,0.104,0.2512
0,-0.28,-0,0,-0.28,-0,0,-0.28,-0,0,-0.28,-0,0,-0.28,-0,0,-0.28,-0,0.1536,0.3968
0,-0.48,-0,0,-0.48,-0,0,-0.48,-0,0,-0.48,-0,0,-0.48,-0,0,-0.48,-0,-0.2768,0.6496
0.112,-0.36,-0.23729,0.064,-0.408,-0.13559,0.016,-0.456,-0.033898,0,-0.472,-0,0,-0.472,-0,0,-0.472,-0,-0.2656,0.4768
0.104,0.184,1.3,0.064,0.112,1.3333,0,0.048,0,0,0.048,0,0,0.048,0,0,0.048,0,0.1904,0.4544
0,-0.104,-0,0,-0.104,-0,0,-0.104,-0,0,-0.104,-0,0,-0.104,-0,0,-0.104,-0,0.1184,0.36
0,0.048,0,0,0.048,0,0,0.048,0,0,0.048,0,0,0.048,0,0,0.048,0,0.1024,0.3056
0.12,0.208,1.3636,0.072,0.128,1.2857,0.032,0.056,1.3333,0,0.024,0,0,0.024,0,0,0.024,0,0.1248,0.216
0.096,0.176,1.2,0.048,0.096,1,0,0.048,0,0,0.048,0,0,0.048,0,0,0.048,0,0.1168,0.3504
0,0.272,0,0,0.272,0,0,0.272,0,0,0.272,0,0,0.272,0,0,0.272,0,0.1392,0.36
0,0.528,0,0,0.528,0,0,0.528,0,0,0.528,0,0,0.528,0,0,0.528,0,0.1424,0.2768
0,-0.088,-0,0,-0.088,-0,0,-0.088,-0,0,-0.088,-0,0,-0.088,-0,0,-0.088,-0,0.1568,0.4352
0,-0.144,-0,0,-0.144,-0,0,-0.144,-0,0,-0.144,-0,0,-0.144,-0,0,-0.144,-0,0.1152,0.248
0.136,0.184,2.8333,0.072,0.12,1.5,0.024,0.072,0.5,0,0.048,0,0,0.048,0,0,0.048,0,-0.4896,0.9424
0.04,0.128,0.45455,0,0.088,0,0,0.088,0,0,0.088,0,0,0.088,0,0,0.088,0,0.2064,0.712
0,-0.48,-0,0,-0.48,-0,0,-0.48,-0,0,-0.48,-0,0,-0.48,-0,0,-0.48,-0,-0.4016,0.9792
0.16,-0.184,-0.46512,0.088,-0.256,-0.25581,0.056,-0.288,-0.16279,0,-0.344,-0,0,-0.344,-0,0,-0.344,-0,-0.3968,0.7808
0.096,0.16,1.5,0.04,0.072,1.25,0,0.032,0,0,0.032,0,0,0.032,0,0,0.032,0,0.1184,0.4096
0,-0.456,-0,0,-0.456,-0,0,-0.456,-0,0,-0.456,-0,0,-0.456,-0,0,-0.456,-0,0.1312,0.4624
0,-0.456,-0,0,-0.456,-0,0,-0.456,-0,0,-0.456,-0,0,-0.456,-0,0,-0.456,-0,0.1312,0.4624
-0.12,-0.064,-2.1429,0.072,0.104,2.25,0.048,0.072,2,0,0.024,0,0,0.024,0,0,0.024,0,0.0688,0.144
0,-0.152,-0,0,-0.152,-0,0,-0.152,-0,0,-0.152,-0,0,-0.152,-0,0,-0.152,-0,-0.232,0.616
0.08,0.128,1.6667,0.032,0.048,2,0,0.016,0,0,0.016,0,0,0.016,0,0,0.016,0,0.0992,0.152
0,0.16,0,0,0.16,0,0,0.16,0,0,0.16,0,0,0.16,0,0,0.16,0,0.096,0.1392
0,0.256,0,0,0.256,0,0,0.256,0,0,0.256,0,0,0.256,0,0,0.256,0,0.1264,0.4784
0.072,-0.016,-0.81818,0.016,-0.072,-0.18182,0,-0.088,-0,0,-0.088,-0,0,-0.088,-0,0,-0.088,-0,-0.368,0.7104
0.072,0.12,1.5,0.016,0.032,1,0,0.016,0,0,0.016,0,0,0.016,0,0,0.016,0,0.2288,0.2496
0.072,0.12,1.5,0.016,0.032,1,0,0.016,0,0,0.016,0,0,0.016,0,0,0.016,0,0.2288,0.2496
0.08,-0.176,-0.3125,0,-0.256,-0,0,-0.256,-0,0,-0.256,-0,0,-0.256,-0,0,-0.256,-0,-0.4016,0.9232
0.08,-0.176,-0.3125,0,-0.256,-0,0,-0.256,-0,0,-0.256,-0,0,-0.256,-0,0,-0.256,-0,-0.4016,0.9232
0.128,-0.192,-0.4,0.08,-0.24,-0.25,0.048,-0.272,-0.15,0,-0.32,-0,0,-0.32,-0,0,-0.32,-0,-0.3328,0.7696
0,-0.112,-0,0,-0.112,-0,0,-0.112,-0,0,-0.112,-0,0,-0.112,-0,0,-0.112,-0,0.1552,0.1216
0,-0.32,-0,0,-0.32,-0,0,-0.32,-0,0,-0.32,-0,0,-0.32,-0,0,-0.32,-0,-0.2192,0.5648
0.176,-0.032,-0.84615,0.12,-0.088,-0.57692,0.096,-0.112,-0.46154,0.008,-0.2,-0.038462,0,-0.208,-0,0,-0.208,-0,-0.1824,0.4496
0.096,-0.184,-0.34286,0.048,-0.232,-0.17143,0,-0.28,-0,0,-0.28,-0,0,-0.28,-0,0,-0.28,-0,-0.2672,0.608
0.16,-0.096,-0.625,0.112,-0.144,-0.4375,0.088,-0.168,-0.34375,0,-0.256,-0,0,-0.256,-0,0,-0.256,-0,-0.2704,0.7136
0,-0.256,-0,0,-0.256,-0,0,-0.256,-0,0.184,-0.072,-0.71875,0.08,-0.176,-0.3125,0,-0.256,-0,-0.24,0.6352
0,-0.304,-0,0,-0.304,-0,0,-0.304,-0,0,-0.304,-0,0,-0.304,-0,0,-0.304,-0,-0.1648,0.4288
0,-0.096,-0,0,-0.096,-0,0,-0.096,-0,0,-0.096,-0,0,-0.096,-0,0,-0.096,-0,0.0864,0.2144
0.144,-0.096,-0.6,0.144,-0.096,-0.6,0.08,-0.16,-0.33333,0,-0.24,-0,0,-0.24,-0,0,-0.24,-0,-0.2336,0.5008
0.056,0.096,1.4,0,0.04,0,0,0.04,0,0,0.04,0,0,0.04,0,0,0.04,0,0.1088,0.1376
