0.112,0.192,1.4,0.08,0.136,1.4286,0.056,0.096,1.4,0,0.04,0,0,0.04,0,0,0.04,0,0.1296,0.3072
0.096,-0.216,-0.30769,0.056,-0.256,-0.17949,0.024,-0.288,-0.076923,0,-0.312,-0,0,-0.312,-0,0,-0.312,-0,-0.2768,0.6064
0.096,0.16,1.5,0.056,0.096,1.4,0.024,0.04,1.5,0,0.016,0,0,0.016,0,0,0.016,0,0.1152,0.2112
0.056,0.024,-1.75,0,-0.032,-0,0,-0.032,-0,0,-0.032,-0,0,-0.032,-0,0,-0.032,-0,-0.2,0.536
0.064,0.104,1.6,0,0.04,0,0,0.04,0,0,0.04,0,0,0.04,0,0,0.04,0,0.104,0.2208
0.088,0.152,1.375,0.048,0.08,1.5,0,0.032,0,0,0.032,0,0,0.032,0,0,0.032,0,0.144,0.344
0.144,0.232,1.6364,0.096,0.16,1.5,0.072,0.128,1.2857,0,0.056,0,0,0.056,0,0,0.056,0,0.1216,0.2704
0,-0.368,-0,0,-0.368,-0,0,-0.368,-0,0,-0.368,-0,0,-0.368,-0,0,-0.368,-0,-0.184,0.44
0,-0.128,-0,0,-0.128,-0,0,-0.128,-0,0,-0.128,-0,0,-0.128,-0,0,-0.128,-0,0.1296,0.296
-0.008,0.144,-0.052632,0.072,0.12,1.5,0,0.048,0,0,0.048,0,0,0.048,0,0,0.048,0,0.1344,0.3056
0,-0.088,-0,0,-0.088,-0,0,-0.088,-0,0,-0.088,-0,0,-0.088,-0,0,-0.088,-0,0.112,0.1408
0,0.048,0,0,0.048,0,0,0.048,0,0,0.048,0,0,0.048,0,0,0.048,0,0.0976,0.1488
0.104,0.176,1.4444,0.072,0.12,1.5,0.056,0.088,1.75,0,0.032,0,0,0.032,0,0,0.032,0,0.1008,0.2112
0.096,0.16,1.5,0.064,0.104,1.6,0.04,0.064,1.6667,0,0.024,0,0,0.024,0,0,0.024,0,0.1008,0.1728
0.096,0.16,1.5,0.064,0.104,1.6,0.04,0.064,1.6667,0,0.024,0,0,0.024,0,0,0.024,0,0.1168,0.2016
0.096,0.152,1.7143,0.04,0.056,2.5,0,0.016,0,0,0.016,0,0,0.016,0,0,0.016,0,0.128,0.312
0.056,0.104,1.1667,0,0.048,0,0,0.048,0,0,0.048,0,0,0.048,0,0,0.048,0,0.1536,0.3904
0.04,0.064,1.6667,0,0.024,0,0,0.024,0,0,0.024,0,0,0.024,0,0,0.024,0,0.1312,0.1888
0.08,-0.08,-0.5,0.04,-0.12,-0.25,0,-0.16,-0,0,-0.16,-0,0,-0.16,-0,0,-0.16,-0,-0.2016,0.4624
0.104,0.032,-1.4444,0.072,0,-1,0.048,-0.024,-0.66667,0,-0.072,-0,0,-0.072,-0,0,-0.072,-0,-0.128,0.3376
0,0.016,0,0,0.016,0,0,0.016,0,0,0.016,0,0,0.016,0,0,0.016,0,0.088,0.1488
0.048,-0.096,-0.33333,0,-0.144,-0,0,-0.144,-0,0,-0.144,-0,0,-0.144,-0,0,-0.144,-0,-0.256,0.584
0,-0.032,-0,0,-0.032,-0,0,-0.032,-0,0,-0.032,-0,0,-0.032,-0,0,-0.032,-0,0.1024,0.1952
0,-0.184,-0,0,-0.184,-0,0,-0.184,-0,0,-0.184,-0,0,-0.184,-0,0,-0.184,-0,-0.2256,0.512
0,-0.088,-0,0,-0.088,-0,0,-0.088,-0,0,-0.088,-0,0,-0.088,-0,0,-0.088,-0,0.0832,0.1888
-0.128,-0.032,-1.3333,0.032,0.056,1.3333,0,0.024,0,0,0.024,0,0,0.024,0,0,0.024,0,0.0944,0.1808
0.136,0.024,-1.2143,0.304,0.192,-2.7143,0.248,0.136,-2.2143,0.144,0.032,-1.2857,0,-0.112,-0,0,-0.112,-0,-0.2912,0.6928
0.088,0.136,1.8333,0.048,0.072,2,0,0.024,0,0,0.024,0,0,0.024,0,0,0.024,0,0.1168,0.2656
0.064,0.184,0.53333,0.064,0.184,0.53333,0.064,0.184,0.53333,0.064,0.184,0.53333,0.184,0.304,1.5333,0.096,0.176,1.2,0.1344,0.3424
0,0.072,0,0,0.072,0,0,0.072,0,0,0.072,0,0,0.072,0,0,0.072,0,0.0992,0.208
0.056,0.104,1.1667,0,0.048,0,0,0.048,0,0,0.048,0,0,0.048,0,0,0.048,0,-0.1872,0.4544
0.072,0.04,-2.25,0.024,-0.008,-0.75,0,-0.032,-0,0,-0.032,-0,0,-0.032,-0,0,-0.032,-0,-0.1808,0.4384
0,-0.008,-0,0,-0.008,-0,0,-0.008,-0,0,-0.008,-0,0,-0.008,-0,0,-0.008,-0,-0.1296,0.3664
0,0.088,0,0,0.088,0,0,0.088,0,0,0.088,0,0,0.088,0,0,0.088,0,0.0976,0.1504
0,0.096,0,0,0.096,0,0,0.096,0,0,0.096,0,0,0.096,0,0,0.096,0,0.096,0.1648
0,-0.024,-0,0,-0.024,-0,0,-0.024,-0,0,-0.024,-0,0,-0.024,-0,0,-0.024,-0,-0.2032,0.5136
0,0.12,0,0,0.12,0,0,0.12,0,0,0.12,0,0,0.12,0,0,0.12,0,0.0848,0.1888
0.112,0.112,Inf,0.08,0.08,Inf,0.056,0.056,Inf,0,0,NaN,0,0,NaN,0,0,NaN,-0.168,0.4144
0.088,0.144,1.5714,0.032,0.056,1.3333,0,0.024,0,0,0.024,0,0,0.024,0,0,0.024,0,0.1264,0.2288
0,-0.064,-0,0,-0.064,-0,0,-0.064,-0,0,-0.064,-0,0,-0.064,-0,0,-0.064,-0,0.088,0.1728
0.128,-0.088,-0.59259,0.08,-0.136,-0.37037,0.056,-0.16,-0.25926,0,-0.216,-0,0,-0.216,-0,0,-0.216,-0,-0.1488,0.3744
0.112,-0.128,-0.46667,0.08,-0.16,-0.33333,0.056,-0.184,-0.23333,0,-0.24,-0,0,-0.24,-0,0,-0.24,-0,-0.1728,0.4256
0.128,-0.024,-0.84211,0.088,-0.064,-0.57895,0.064,-0.088,-0.42105,0,-0.152,-0,0,-0.152,-0,0,-0.152,-0,-0.1824,0.4512
0.064,0.104,1.6,0.016,0.024,2,0,0.008,0,0,0.008,0,0,0.008,0,0,0.008,0,0.1056,0.176
0,-0.048,-0,0,-0.048,-0,0,-0.048,-0,0,-0.048,-0,0,-0.048,-0,0,-0.048,-0,0.1088,0.1856
0.128,0.16,4,0.072,0.104,2.25,0.032,0.064,1,0,0.032,0,0,0.032,0,0,0.032,0,-0.3216,0.7344
0,0.184,0,0,0.184,0,0,0.184,0,0,0.184,0,0,0.184,0,0,0.184,0,0.104,0.2016
0.096,0.24,0.66667,0.376,0.52,2.6111,0.224,0.368,1.5556,0,0.144,0,0,0.144,0,0,0.144,0,0.1616,0.272
0,-0.072,-0,0,-0.072,-0,0,-0.072,-0,0,-0.072,-0,0,-0.072,-0,0,-0.072,-0,-0.1904,0.4944
0,0.104,0,0,0.104,0,0,0.104,0,0,0.104,0,0,0.104,0,0,0.104,0,0.0992,0.2384
0,0.392,0,0,0.392,0,0,0.392,0,0,0.392,0,0,0.392,0,0,0.392,0,0.112,0.2368
0.096,0.064,-3,0.032,0,-1,0,-0.032,-0,0,-0.032,-0,0,-0.032,-0,0,-0.032,-0,-0.328,0.7872
0.128,0.136,16,0.096,0.104,12,0.072,0.08,9,0,0.008,0,0,0.008,0,0,0.008,0,-0.2896,0.6752
0.128,0.184,2.2857,0.072,0.112,1.8,0.032,0.056,1.3333,0,0.024,0,0,0.024,0,0,0.024,0,0.1184,0.3232
0,0.024,0,0,0.024,0,0,0.024,0,0,0.024,0,0,0.024,0,0,0.024,0,0.0944,0.2464
0.112,0.168,2,0.048,0.072,2,0,0.024,0,0,0.024,0,0,0.024,0,0,0.024,0,0.152,0.4944
0.12,0.184,1.875,0.072,0.112,1.8,0.04,0.056,2.5,0,0.016,0,0,0.016,0,0,0.016,0,0.1008,0.2848
0.104,0.168,1.625,0.048,0.08,1.5,0,0.032,0,0,0.032,0,0,0.032,0,0,0.032,0,0.1248,0.1232
0,0.016,0,0,0.016,0,0,0.016,0,0,0.016,0,0,0.016,0,0,0.016,0,0.112,0.3168
0.176,-0.152,-0.53659,0.128,-0.2,-0.39024,0.104,-0.224,-0.31707,0.024,-0.304,-0.073171,0,-0.328,-0,0,-0.328,-0,-0.3216,0.752
0.392,0.52,3.0625,0.28,0.376,2.9167,0.184,0.264,2.3,0.072,0.112,1.8,0,0.04,0,0,0.04,0,0.1248,0.2992
0,-0.048,-0,0,-0.048,-0,0,-0.048,-0,0,-0.048,-0,0,-0.048,-0,0,-0.048,-0,0.08,0.1696
0.128,-0.056,-0.69565,0.08,-0.104,-0.43478,0.056,-0.128,-0.30435,0,-0.184,-0,0,-0.184,-0,0,-0.184,-0,-0.2304,0.6112
0.04,-0.096,-0.29412,0,-0.136,-0,0,-0.136,-0,0,-0.136,-0,0,-0.136,-0,0,-0.136,-0,-0.2816,0.6144
0,-0.264,-0,0,-0.264,-0,0,-0.264,-0,0,-0.264,-0,0,-0.264,-0,0,-0.264,-0,-0.36,0.8832
0.208,-0.064,-0.76471,0.096,-0.176,-0.35294,0.064,-0.208,-0.23529,0,-0.272,-0,0,-0.272,-0,0,-0.272,-0,-0.4528,1.0608
0.056,0.096,1.4,0,0.04,0,0,0.04,0,0,0.04,0,0,0.04,0,0,0.04,0,0.192,0.5296
0,-0.16,-0,0,-0.16,-0,0,-0.16,-0,0,-0.16,-0,0,-0.16,-0,0,-0.16,-0,0.1552,0.376
0,0.472,0,0,0.472,0,0,0.472,0,0,0.472,0,0,0.472,0,0,0.472,0,0.152,0.3888
0.136,-0.024,-0.85,0.08,-0.08,-0.5,0.048,-0.112,-0.3,0,-0.16,-0,0,-0.16,-0,0,-0.16,-0,-0.4336,0.9984
0.128,-0.096,-0.57143,0.072,-0.152,-0.32143,0.048,-0.176,-0.21429,0,-0.224,-0,0,-0.224,-0,0,-0.224,-0,-0.36,0.8336
0,0.12,0,0,0.12,0,0,0.12,0,0,0.12,0,0,0.12,0,0,0.12,0,0.1296,0.3296
0.112,0.184,1.5556,0.064,0.104,1.6,0.024,0.032,3,0,0.008,0,0,0.008,0,0,0.008,0,0.1552,0.4096
0.096,0.024,-1.3333,0.024,-0.048,-0.33333,0,-0.072,-0,0,-0.072,-0,0,-0.072,-0,0,-0.072,-0,-0.4624,1.088
0.088,0.152,1.375,0,0.064,0,0,0.064,0,0,0.064,0,0,0.064,0,0,0.064,0,0.1808,0.456
0.112,0.216,1.0769,0.064,0.12,1.1429,0,0.056,0,0,0.056,0,0,0.056,0,0,0.056,0,0.2128,0.5328
0.072,-0.296,-0.19565,0,-0.368,-0,0,-0.368,-0,0,-0.368,-0,0,-0.368,-0,0,-0.368,-0,-0.2912,0.7792
0.12,0.2,1.5,0.056,0.096,1.4,0,0.04,0,0,0.04,0,0,0.04,0,0,0.04,0,0.1856,0.5856
0.12,0.2,1.5,0.056,0.096,1.4,0,0.04,0,0,0.04,0,0,0.04,0,0,0.04,0,0.1856,0.5856
0.112,-0.576,-0.16279,0.04,-0.648,-0.05814,0,-0.688,-0,0,-0.688,-0,0,-0.688,-0,0,-0.688,-0,-0.6256,1.456
0.144,-0.44,-0.24658,0.072,-0.512,-0.12329,0,-0.584,-0,0,-0.584,-0,0,-0.584,-0,0,-0.584,-0,-0.5648,1.3072
-0.144,-0.008,-1.0588,-0.144,-0.008,-1.0588,-0.144,-0.008,-1.0588,-0.144,-0.008,-1.0588,0,0.136,0,0,0.136,0,0.1152,0.2304
0,0.136,0,0,0.136,0,0,0.136,0,0,0.136,0,0,0.136,0,0,0.136,0,0.1152,0.2304
0,-0.128,-0,0,-0.128,-0,0,-0.128,-0,0,-0.128,-0,0,-0.128,-0,0,-0.128,-0,-0.4784,1.1712
0,0.328,0,0,0.328,0,0,0.328,0,0,0.328,0,0,0.328,0,0,0.328,0,0.0672,0.1264
0,-0.128,-0,0,-0.128,-0,0,-0.128,-0,0,-0.128,-0,0,-0.128,-0,0,-0.128,-0,0.1296,0.3888
0.184,0.12,-2.875,0.12,0.056,-1.875,0.096,0.032,-1.5,0.04,-0.024,-0.625,0,-0.064,-0,0,-0.064,-0,-0.1952,0.488
0.184,0.12,-2.875,0.12,0.056,-1.875,0.096,0.032,-1.5,0.04,-0.024,-0.625,0,-0.064,-0,0,-0.064,-0,-0.1952,0.488
0.04,0,-1,0,-0.04,-0,0,-0.04,-0,0,-0.04,-0,0,-0.04,-0,0,-0.04,-0,-0.3856,0.9616
0.224,0.328,2.1538,0.152,0.232,1.9,0.12,0.184,1.875,0,0.064,0,0,0.064,0,0,0.064,0,0.1296,0.4176
0.224,0.328,2.1538,0.152,0.232,1.9,0.12,0.184,1.875,0,0.064,0,0,0.064,0,0,0.064,0,0.1296,0.4176
0.144,0.136,-18,0.088,0.08,-11,0.056,0.048,-7,0,-0.008,-0,0,-0.008,-0,0,-0.008,-0,-0.5264,1.2448
0.128,0.024,-1.2308,0.08,-0.024,-0.76923,0.04,-0.064,-0.38462,0,-0.104,-0,0,-0.104,-0,0,-0.104,-0,-0.2768,0.672
0,0.072,0,0,0.072,0,0,0.072,0,0,0.072,0,0,0.072,0,0,0.072,0,0.104,0.2352
0.184,0.256,2.5556,0.112,0.16,2.3333,0.072,0.104,2.25,0,0.032,0,0,0.032,0,0,0.032,0,0.1376,0.4704
0.12,0.056,-1.875,0.032,-0.032,-0.5,0,-0.064,-0,0,-0.064,-0,0,-0.064,-0,0,-0.064,-0,-0.416,0.8592
0.208,0.232,8.6667,0.056,0.064,7,0,0.008,0,0,0.008,0,0,0.008,0,0,0.008,0,0.1568,0.56
0,-0.024,-0,0,-0.024,-0,0,-0.024,-0,0,-0.024,-0,0,-0.024,-0,0,-0.024,-0,-0.504,1.152
0.304,0.32,19,0.144,0.16,9,0.096,0.112,6,0,0.016,0,0,0.016,0,0,0.016,0,-0.5488,1.2896
0,-0.04,-0,0,-0.04,-0,0,-0.04,-0,0,-0.04,-0,0,-0.04,-0,0,-0.04,-0,-0.2128,0.5264
-0.024,0,-1,0,0.024,0,0,0.024,0,0,0.024,0,0,0.024,0,0,0.024,0,0.0864,0.1248
0.08,0.056,-3.3333,0.048,0.024,-2,0.032,0.008,-1.3333,0,-0.024,-0,0,-0.024,-0,0,-0.024,-0,-0.1744,0.4592
0.12,0.056,-1.875,0,-0.064,-0,0,-0.064,-0,0,-0.064,-0,0,-0.064,-0,0,-0.064,-0,-0.184,0.4768
0,0.016,0,0,0.016,0,0,0.016,0,0,0.016,0,0,0.016,0,0,0.016,0,-0.1568,0.4336
0,0.216,0,0,0.216,0,0,0.216,0,0,0.216,0,0,0.216,0,0,0.216,0,0.1072,0.1216
0.08,0.192,0.71429,0.168,0.24,2.3333,0.08,0.128,1.6667,0,0.048,0,0,0.048,0,0,0.048,0,0.1008,0.184
0.024,0.088,0.375,0.08,0.128,1.6667,0.056,0.088,1.75,0,0.032,0,0,0.032,0,0,0.032,0,0.1056,0.1968
0.136,0.2,2.125,0.08,0.12,2,0.048,0.064,3,0,0.016,0,0,0.016,0,0,0.016,0,0.0976,0.2816
0.096,-0.144,-0.4,0.048,-0.192,-0.2,0,-0.24,-0,0,-0.24,-0,0,-0.24,-0,0,-0.24,-0,-0.2688,0.5744
0.392,0.2,-2.0417,0.128,-0.064,-0.66667,0.096,-0.096,-0.5,0,-0.192,-0,0,-0.192,-0,0,-0.192,-0,-0.1968,0.4848
0,-0.256,-0,0,-0.256,-0,0,-0.256,-0,0,-0.256,-0,0,-0.256,-0,0,-0.256,-0,-0.2064,0.5584
0.008,-0.256,-0.030303,0.176,-0.088,-0.66667,0.136,-0.128,-0.51515,0.072,-0.192,-0.27273,0,-0.264,-0,0,-0.264,-0,-0.2144,0.544
0.032,-0.248,-0.11429,0,-0.28,-0,0,-0.28,-0,0,-0.28,-0,0,-0.28,-0,0,-0.28,-0,-0.1328,0.4144
0,-0.096,-0,0,-0.096,-0,0,-0.096,-0,0,-0.096,-0,0,-0.096,-0,0,-0.096,-0,-0.1952,0.496
0,-0.096,-0,0,-0.096,-0,0,-0.096,-0,0,-0.096,-0,0,-0.096,-0,0,-0.096,-0,-0.1952,0.496
0.192,-0.096,-0.66667,0.192,-0.096,-0.66667,0.248,-0.04,-0.86111,0.2,-0.088,-0.69444,0.056,-0.232,-0.19444,0.032,-0.256,-0.11111,-0.1328,0.3872
0,-0.056,-0,0,-0.056,-0,0,-0.056,-0,0,-0.056,-0,0,-0.056,-0,0,-0.056,-0,0.08,0.1056
0,-0.208,-0,0,-0.208,-0,0,-0.208,-0,0,-0.208,-0,0,-0.208,-0,0,-0.208,-0,-0.1904,0.5792
0,-0.256,-0,0,-0.256,-0,0,-0.256,-0,0,-0.256,-0,0,-0.256,-0,0,-0.256,-0,-0.6176,1.4864
0.096,-0.104,-0.48,0.04,-0.16,-0.2,0,-0.2,-0,0,-0.2,-0,0,-0.2,-0,0,-0.2,-0,-0.3472,0.7552
0,-0.072,-0,0,-0.072,-0,0,-0.072,-0,0,-0.072,-0,0,-0.072,-0,0,-0.072,-0,0.096,0.112
0,0.384,0,0,0.384,0,0,0.384,0,0,0.384,0,0,0.384,0,0,0.384,0,0.232,0.48
0.224,-0.056,-0.8,0.112,-0.168,-0.4,0.072,-0.208,-0.25714,0,-0.28,-0,0,-0.28,-0,0,-0.28,-0,-0.4464,1.0896
0.12,0.216,1.25,0.064,0.112,1.3333,0,0.048,0,0,0.048,0,0,0.048,0,0,0.048,0,0.2352,0.5184
0.264,0.136,-2.0625,0.128,0,-1,0.088,-0.04,-0.6875,0,-0.128,-0,0,-0.128,-0,0,-0.128,-0,-0.4352,1.0528
0.152,0.256,1.4615,0.08,0.144,1.25,0.032,0.056,1.3333,0,0.024,0,0,0.024,0,0,0.024,0,0.2064,0.5008
0,0.008,0,0,0.008,0,0,0.008,0,0,0.008,0,0,0.008,0,0,0.008,0,0.232,0.5584
-0.04,0.016,-0.71429,0,0.056,0,0,0.056,0,0,0.056,0,0,0.056,0,0,0.056,0,0.1824,0.4496
0,-0.304,-0,0,-0.304,-0,0,-0.304,-0,0,-0.304,-0,0,-0.304,-0,0,-0.304,-0,0.1824,0.3584
0.08,0.144,1.25,0,0.064,0,0,0.064,0,0,0.064,0,0,0.064,0,0,0.064,0,0.176,0.4192
0.24,0.288,5,0.248,0.296,5.1667,0.224,0.272,4.6667,0.112,0.16,2.3333,0,0.048,0,0,0.048,0,0.168,0.4272
0.136,0.232,1.4167,0.088,0.152,1.375,0.064,0.104,1.6,0,0.04,0,0,0.04,0,0,0.04,0,0.1792,0.3968
0.12,0.232,1.0714,0.072,0.144,1,0.048,0.096,1,0,0.048,0,0,0.048,0,0,0.048,0,0.2,0.4144
0.112,0.208,1.1667,0.064,0.128,1,0.024,0.048,1,0,0.024,0,0,0.024,0,0,0.024,0,0.208,0.4288
0.136,0.248,1.2143,0.072,0.144,1,0.04,0.072,1.25,0,0.032,0,0,0.032,0,0,0.032,0,0.1712,0.368
0.272,0.416,1.8889,0.152,0.256,1.4615,0.104,0.184,1.3,0,0.08,0,0,0.08,0,0,0.08,0,0.2144,0.4736
0.264,0.368,2.5385,0,0.104,0,0,0.104,0,0,0.104,0,0,0.104,0,0,0.104,0,0.248,0.3456
0.288,0.056,-1.2414,0.12,-0.112,-0.51724,0.072,-0.16,-0.31034,0,-0.232,-0,0,-0.232,-0,0,-0.232,-0,-0.384,0.9712
0,0.08,0,0,0.08,0,0,0.08,0,0,0.08,0,0,0.08,0,0,0.08,0,0.0832,0.2352
0.072,0.12,1.5,0,0.048,0,0,0.048,0,0,0.048,0,0,0.048,0,0,0.048,0,0.1552,0.3248
0,-0.072,-0,0,-0.072,-0,0,-0.072,-0,0,-0.072,-0,0,-0.072,-0,0,-0.072,-0,0.1536,0.2336
0.088,-0.32,-0.21569,0.04,-0.368,-0.098039,0,-0.408,-0,0,-0.408,-0,0,-0.408,-0,0,-0.408,-0,-0.3024,0.7712
0.136,0.2,2.125,0.088,0.136,1.8333,0.048,0.08,1.5,0,0.032,0,0,0.032,0,0,0.032,0,0.1904,0.3152
0.144,-0.408,-0.26087,0.096,-0.456,-0.17391,0.072,-0.48,-0.13043,0,-0.552,-0,0,-0.552,-0,0,-0.552,-0,-0.4544,1.0256
0.12,0.192,1.6667,0.056,0.088,1.75,0,0.032,0,0,0.032,0,0,0.032,0,0,0.032,0,0.128,0.2512
0.096,-0.328,-0.22642,0.032,-0.392,-0.075472,0,-0.424,-0,0,-0.424,-0,0,-0.424,-0,0,-0.424,-0,-0.448,1.04
0.136,0.192,2.4286,0.088,0.12,2.75,0.048,0.064,3,0,0.016,0,0,0.016,0,0,0.016,0,0.088,0.2656
0.16,0.008,-1.0526,0.104,-0.048,-0.68421,0.088,-0.064,-0.57895,0,-0.152,-0,0,-0.152,-0,0,-0.152,-0,-0.2704,0.6512
0.112,0.168,2,0,0.056,0,0,0.056,0,0,0.056,0,0,0.056,0,0,0.056,0,0.1152,0.3472
0,-0.096,-0,0,-0.096,-0,0,-0.096,-0,0,-0.096,-0,0,-0.096,-0,0,-0.096,-0,-0.2,0.4624
-0.416,-0.296,-3.4667,0.168,0.248,2.1,0.104,0.152,2.1667,0,0.048,0,0,0.048,0,0,0.048,0,0.1008,0.3456
0,-0.272,-0,0,-0.272,-0,0,-0.272,-0,0,-0.272,-0,0,-0.272,-0,0,-0.272,-0,0.1552,0.2912
0.128,0.192,2,0.064,0.104,1.6,0,0.04,0,0,0.04,0,0,0.04,0,0,0.04,0,0.0928,0.28
0,0.08,0,0,0.08,0,0,0.08,0,0,0.08,0,0,0.08,0,0,0.08,0,0.0528,0.1408
0,-0.04,-0,0,-0.04,-0,0,-0.04,-0,0,-0.04,-0,0,-0.04,-0,0,-0.04,-0,-0.1904,0.5136
0,0.152,0,0,0.152,0,0,0.152,0,0,0.152,0,0,0.152,0,0,0.152,0,0.208,0.2464
0,0.008,0,0,0.008,0,0,0.008,0,0,0.008,0,0,0.008,0,0,0.008,0,-0.4704,1.0448
0.136,0.248,1.2143,0.08,0.16,1,0.048,0.096,1,0,0.048,0,0,0.048,0,0,0.048,0,0.1968,0.5136
0.24,-0.16,-0.6,0.12,-0.28,-0.3,0.08,-0.32,-0.2,0,-0.4,-0,0,-0.4,-0,0,-0.4,-0,-0.3216,0.808
0,-0.336,-0,0,-0.336,-0,0,-0.336,-0,0,-0.336,-0,0,-0.336,-0,0,-0.336,-0,-0.2864,0.6976
0.176,0.264,2,0.104,0.168,1.625,0.072,0.12,1.5,0,0.048,0,0,0.048,0,0,0.048,0,0.1632,0.328
0.152,0.088,-2.375,0.088,0.024,-1.375,0.056,-0.008,-0.875,0,-0.064,-0,0,-0.064,-0,0,-0.064,-0,-0.3616,0.8432
0.064,0.136,0.88889,0,0.072,0,0,0.072,0,0,0.072,0,0,0.072,0,0,0.072,0,0.232,0.52
0.112,-0.04,-0.73684,0.056,-0.096,-0.36842,0,-0.152,-0,0,-0.152,-0,0,-0.152,-0,0,-0.152,-0,-0.4576,1.1584
0.072,-0.024,-0.75,0,-0.096,-0,0,-0.096,-0,0,-0.096,-0,0,-0.096,-0,0,-0.096,-0,-0.3712,0.944
0.144,0.248,1.3846,0.088,0.144,1.5714,0.056,0.08,2.3333,0,0.024,0,0,0.024,0,0,0.024,0,0.2512,0.4576
0.088,0.192,0.84615,0.016,0.024,2,0,0.008,0,0,0.008,0,0,0.008,0,0,0.008,0,0.2496,0.4592
0.136,0.248,1.2143,0.08,0.152,1.1111,0.04,0.072,1.25,0,0.032,0,0,0.032,0,0,0.032,0,0.208,0.352
0.096,-0.16,-0.375,0.032,-0.224,-0.125,0,-0.256,-0,0,-0.256,-0,0,-0.256,-0,0,-0.256,-0,-0.4576,1.1232
0.136,-0.024,-0.85,0.072,-0.088,-0.45,0.04,-0.12,-0.25,0,-0.16,-0,0,-0.16,-0,0,-0.16,-0,-0.4736,1.1984
0.08,0.128,1.6667,0,0.048,0,0,0.048,0,0,0.048,0,0,0.048,0,0,0.048,0,0.168,0.2576
0,-0.04,-0,0,-0.04,-0,0,-0.04,-0,0,-0.04,-0,0,-0.04,-0,0,-0.04,-0,-0.3536,1.0176
0.096,0.208,0.85714,0.032,0.144,0.28571,0,0.112,0,0,0.112,0,0,0.112,0,0,0.112,0,-0.232,0.6224
0.096,0.216,0.8,0,0.12,0,0,0.12,0,0,0.12,0,0,0.12,0,0,0.12,0,-0.368,1.0128
0.168,0.296,1.3125,0.088,0.176,1,0.056,0.112,1,0,0.056,0,0,0.056,0,0,0.056,0,0.2448,0.4016
0,-0.2,-0,0,-0.2,-0,0,-0.2,-0,0,-0.2,-0,0,-0.2,-0,0,-0.2,-0,0.2592,0.3408
0.064,-0.432,-0.12903,0,-0.496,-0,0,-0.496,-0,0,-0.496,-0,0,-0.496,-0,0,-0.496,-0,-0.4,0.9984
0.088,0.168,1.1,0,0.08,0,0,0.08,0,0,0.08,0,0,0.08,0,0,0.08,0,0.2208,0.3664
0.152,0.032,-1.2667,0.056,-0.064,-0.46667,0,-0.12,-0,0,-0.12,-0,0,-0.12,-0,0,-0.12,-0,-0.3152,0.7792
0.104,0.2,1.0833,0.056,0.112,1,0.016,0.032,1,0,0.016,0,0,0.016,0,0,0.016,0,0.2128,0.4416
0.128,0.216,1.4545,0.072,0.112,1.8,0,0.04,0,0,0.04,0,0,0.04,0,0,0.04,0,0.2224,0.4864
0.12,0.216,1.25,0.072,0.12,1.5,0.024,0.032,3,0,0.008,0,0,0.008,0,0,0.008,0,0.2224,0.496
0,-0.464,-0,0,-0.464,-0,0,-0.464,-0,0,-0.464,-0,0,-0.464,-0,0,-0.464,-0,0.1808,0.416
0.112,-0.216,-0.34146,0.056,-0.272,-0.17073,0,-0.328,-0,0,-0.328,-0,0,-0.328,-0,0,-0.328,-0,-0.4928,1.2112
0,-0.04,-0,0,-0.04,-0,0,-0.04,-0,0,-0.04,-0,0,-0.04,-0,0,-0.04,-0,0.1472,0.2768
0.96,0.672,-3.3333,0.888,0.6,-3.0833,0.888,0.6,-3.0833,0.872,0.584,-3.0278,0.088,-0.2,-0.30556,0,-0.288,-0,-0.3984,0.9104
0,-0.384,-0,0,-0.384,-0,0,-0.384,-0,0,-0.384,-0,0,-0.384,-0,0,-0.384,-0,-0.2368,0.5968
0.096,-0.28,-0.25532,0,-0.376,-0,0,-0.376,-0,0,-0.376,-0,0,-0.376,-0,0,-0.376,-0,-0.32,0.6976
-0.024,-0.376,0.068182,-0.024,-0.376,0.068182,1.016,0.664,-2.8864,0.232,-0.12,-0.65909,0.048,-0.304,-0.13636,0,-0.352,-0,-0.4352,1.0928
0.168,-0.168,-0.5,0.08,-0.256,-0.2381,0.048,-0.288,-0.14286,0,-0.336,-0,0,-0.336,-0,0,-0.336,-0,-0.1744,0.4592
0,-0.432,-0,0,-0.432,-0,0,-0.432,-0,0,-0.432,-0,0,-0.432,-0,0,-0.432,-0,-0.2016,0.6144
0,-0.36,-0,0,-0.36,-0,0,-0.36,-0,0,-0.36,-0,0,-0.36,-0,0,-0.36,-0,0.1888,0.168
0.048,0.064,3,0,0.016,0,0,0.016,0,0,0.016,0,0,0.016,0,0,0.016,0,0.1552,0.2416
0.248,0.384,1.8235,0.112,0.2,1.2727,0.088,0.144,1.5714,0,0.056,0,0,0.056,0,0,0.056,0,0.1952,0.3072
0.064,-0.232,-0.21622,0,-0.296,-0,0,-0.296,-0,0,-0.296,-0,0,-0.296,-0,0,-0.296,-0,-0.3376,0.8864
0,-0.248,-0,0,-0.248,-0,0,-0.248,-0,0,-0.248,-0,0,-0.248,-0,0,-0.248,-0,-0.2512,0.6848
0.096,0.176,1.2,0,0.08,0,0,0.08,0,0,0.08,0,0,0.08,0,0,0.08,0,0.1904,0.3488
0.032,-0.064,-0.33333,0,-0.096,-0,0,-0.096,-0,0,-0.096,-0,0,-0.096,-0,0,-0.096,-0,-0.2576,0.704
0.176,0.152,-7.3333,0.096,0.072,-4,0.064,0.04,-2.6667,0,-0.024,-0,0,-0.024,-0,0,-0.024,-0,-0.3712,0.9248
0.08,-0.072,-0.52632,0.032,-0.12,-0.21053,0,-0.152,-0,0,-0.152,-0,0,-0.152,-0,0,-0.152,-0,-0.3024,0.8096
0.096,0.192,1,0.04,0.064,1.6667,0,0.024,0,0,0.024,0,0,0.024,0,0,0.024,0,0.216,0.3984
0,0,NaN,0,0,NaN,0,0,NaN,0,0,NaN,0,0,NaN,0,0,NaN,0.1728,0.32
0.04,-0.216,-0.15625,0,-0.256,-0,0,-0.256,-0,0,-0.256,-0,0,-0.256,-0,0,-0.256,-0,-0.1984,0.5616
0,-0.176,-0,0,-0.176,-0,0,-0.176,-0,0,-0.176,-0,0,-0.176,-0,0,-0.176,-0,0.192,0.3056
0.128,0.208,1.6,0.072,0.12,1.5,0.032,0.04,4,0,0.008,0,0,0.008,0,0,0.008,0,0.2176,0.3952
0.08,0.16,1,0,0.08,0,0,0.08,0,0,0.08,0,0,0.08,0,0,0.08,0,0.2,0.3792
0.088,0.168,1.1,0.032,0.048,2,0,0.016,0,0,0.016,0,0,0.016,0,0,0.016,0,0.2048,0.4432
0.024,-0.528,-0.043478,0,-0.552,-0,0,-0.552,-0,0,-0.552,-0,0,-0.552,-0,0,-0.552,-0,-0.4544,1.1168
0.12,-0.272,-0.30612,0.064,-0.328,-0.16327,0.024,-0.368,-0.061224,0,-0.392,-0,0,-0.392,-0,0,-0.392,-0,-0.336,0.8416
0.144,-0.448,-0.24324,0,-0.592,-0,0,-0.592,-0,0,-0.592,-0,0,-0.592,-0,0,-0.592,-0,-0.392,1.0176
0,-0.488,-0,0,-0.488,-0,0,-0.488,-0,0,-0.488,-0,0,-0.488,-0,0,-0.488,-0,0.192,0.3216
0.072,0.144,1,0,0.072,0,0,0.072,0,0,0.072,0,0,0.072,0,0,0.072,0,0.1856,0.3872
0.088,0.168,1.1,0.024,0.04,1.5,0,0.016,0,0,0.016,0,0,0.016,0,0,0.016,0,0.2112,0.4096
0.288,0.128,-1.8,0.184,0.024,-1.15,0.088,-0.072,-0.55,0,-0.16,-0,0,-0.16,-0,0,-0.16,-0,-0.3024,0.776
0.112,0.208,1.1667,0.064,0.112,1.3333,0,0.048,0,0,0.048,0,0,0.048,0,0,0.048,0,0.2176,0.408
0.12,0.224,1.1538,0.08,0.144,1.25,0.048,0.08,1.5,0,0.032,0,0,0.032,0,0,0.032,0,0.2144,0.4112
0,0.136,0,0,0.136,0,0,0.136,0,0,0.136,0,0,0.136,0,0,0.136,0,0.1408,0.1888
0.136,0.24,1.3077,0.088,0.16,1.2222,0.064,0.112,1.3333,0,0.048,0,0,0.048,0,0,0.048,0,0.2,0.4416
0.104,0.2,1.0833,0.064,0.12,1.1429,0,0.056,0,0,0.056,0,0,0.056,0,0,0.056,0,0.2064,0.4304
0.216,0.36,1.5,0.096,0.2,0.92308,0.064,0.144,0.8,0,0.08,0,0,0.08,0,0,0.08,0,0.2016,0.392
-0.056,0.112,-0.33333,-0.056,0.112,-0.33333,-0.056,0.112,-0.33333,0,0.168,0,0,0.168,0,0,0.168,0,0.1584,0.3216
0,0.024,0,0,0.024,0,0,0.024,0,0,0.024,0,0,0.024,0,0,0.024,0,0.1728,0.2944
0.088,-0.208,-0.2973,0.04,-0.256,-0.13514,0,-0.296,-0,0,-0.296,-0,0,-0.296,-0,0,-0.296,-0,-0.328,0.8144
0.288,0.432,2,0.072,0.144,1,0,0.072,0,0,0.072,0,0,0.072,0,0,0.072,0,0.2016,0.4144
0,0.168,0,0,0.168,0,0,0.168,0,0,0.168,0,0,0.168,0,0,0.168,0,0.1472,0.2624
0.04,-0.008,-0.83333,0,-0.048,-0,0,-0.048,-0,0,-0.048,-0,0,-0.048,-0,0,-0.048,-0,-0.32,0.744
0.136,0.248,1.2143,0.096,0.176,1.2,0.072,0.136,1.125,0,0.064,0,0,0.064,0,0,0.064,0,0.1824,0.5008
0.016,0.024,2,0,0.008,0,0,0.008,0,0,0.008,0,0,0.008,0,0,0.008,0,0.1952,0.4528
0.224,0.416,1.1667,0.128,0.32,0.66667,0.104,0.256,0.68421,0.08,0.168,0.90909,0,0.088,0,0,0.088,0,0.1616,0.352
0.112,0.208,1.1667,0.072,0.128,1.2857,0.032,0.056,1.3333,0,0.024,0,0,0.024,0,0,0.024,0,0.1936,0.464
0.112,0.192,1.4,0.072,0.12,1.5,0,0.048,0,0,0.048,0,0,0.048,0,0,0.048,0,0.1968,0.4624
0,0.168,0,0,0.168,0,0,0.168,0,0,0.168,0,0,0.168,0,0,0.168,0,0.152,0.2352
0.088,0.176,1,0.032,0.064,1,0,0.032,0,0,0.032,0,0,0.032,0,0,0.032,0,0.2,0.4368
0.12,0.224,1.1538,0.08,0.144,1.25,0.048,0.08,1.5,0,0.032,0,0,0.032,0,0,0.032,0,0.2016,0.4496
0.096,0.184,1.0909,0.048,0.088,1.2,0,0.04,0,0,0.04,0,0,0.04,0,0,0.04,0,0.1648,0.36
0.088,-0.384,-0.18644,0.016,-0.456,-0.033898,0,-0.472,-0,0,-0.472,-0,0,-0.472,-0,0,-0.472,-0,-0.4352,1.0704
0.056,-0.384,-0.12727,0,-0.44,-0,0,-0.44,-0,0,-0.44,-0,0,-0.44,-0,0,-0.44,-0,-0.44,1.08
0.104,-0.4,-0.20635,0.056,-0.448,-0.11111,0,-0.504,-0,0,-0.504,-0,0,-0.504,-0,0,-0.504,-0,-0.4448,1.0912
0.112,0.2,1.2727,0.072,0.128,1.2857,0.032,0.048,2,0,0.016,0,0,0.016,0,0,0.016,0,0.1584,0.368
0.072,0.128,1.2857,0.032,0.04,4,0,0.008,0,0,0.008,0,0,0.008,0,0,0.008,0,0.1744,0.3616
0,-0.2,-0,0,-0.2,-0,0,-0.2,-0,0,-0.2,-0,0,-0.2,-0,0,-0.2,-0,0.1632,0.352
0.12,0.224,1.1538,0.072,0.128,1.2857,0.024,0.032,3,0,0.008,0,0,0.008,0,0,0.008,0,0.1808,0.3376
0.088,0.104,5.5,0.088,0.104,5.5,0.088,0.104,5.5,0.088,0.104,5.5,0.008,0.024,0.5,0,0.016,0,0.1488,0.2624
0.112,0.048,-1.75,0.072,0.008,-1.125,0.032,-0.032,-0.5,0,-0.064,-0,0,-0.064,-0,0,-0.064,-0,-0.3248,0.7856
0.072,0.152,0.9,0,0.08,0,0,0.08,0,0,0.08,0,0,0.08,0,0,0.08,0,0.16,0.3536
0.104,0.2,1.0833,0.056,0.104,1.1667,0,0.048,0,0,0.048,0,0,0.048,0,0,0.048,0,0.1664,0.3568
0.088,-0.432,-0.16923,0.024,-0.496,-0.046154,0,-0.52,-0,0,-0.52,-0,0,-0.52,-0,0,-0.52,-0,-0.4432,1.072
0.104,-0.448,-0.18841,0.056,-0.496,-0.10145,0,-0.552,-0,0,-0.552,-0,0,-0.552,-0,0,-0.552,-0,-0.36,0.8864
0.12,0.224,1.1538,0.072,0.144,1,0.04,0.072,1.25,0,0.032,0,0,0.032,0,0,0.032,0,0.2016,0.44
0.088,-0.376,-0.18966,0,-0.464,-0,0,-0.464,-0,0,-0.464,-0,0,-0.464,-0,0,-0.464,-0,-0.3488,0.8688
0.176,0.288,1.5714,0.12,0.2,1.5,0.088,0.144,1.5714,0,0.056,0,0,0.056,0,0,0.056,0,0.2208,0.4496
0,-0.128,-0,0,-0.128,-0,0,-0.128,-0,0,-0.128,-0,0,-0.128,-0,0,-0.128,-0,0.1632,0.2784
0.08,0.152,1.1111,0,0.072,0,0,0.072,0,0,0.072,0,0,0.072,0,0,0.072,0,0.1872,0.4336
0,0.144,0,0,0.144,0,0,0.144,0,0,0.144,0,0,0.144,0,0,0.144,0,0.1456,0.2624
0.112,0.208,1.1667,0.064,0.12,1.1429,0,0.056,0,0,0.056,0,0,0.056,0,0,0.056,0,0.2064,0.5344
0.096,-0.176,-0.35294,0,-0.272,-0,0,-0.272,-0,0,-0.272,-0,0,-0.272,-0,0,-0.272,-0,-0.4,0.8544
0.112,0.184,1.5556,0.008,0.008,Inf,0,0,NaN,0,0,NaN,0,0,NaN,0,0,NaN,0.2928,0.4032
0.136,-0.36,-0.27419,0.072,-0.424,-0.14516,0,-0.496,-0,0,-0.496,-0,0,-0.496,-0,0,-0.496,-0,-0.368,0.8816
0.072,0.136,1.125,0,0.064,0,0,0.064,0,0,0.064,0,0,0.064,0,0,0.064,0,0.2096,0.448
0.056,-0.112,-0.33333,0,-0.168,-0,0,-0.168,-0,0,-0.168,-0,0,-0.168,-0,0,-0.168,-0,-0.2512,0.6864
0,0.216,0,0,0.216,0,0,0.216,0,0,0.216,0,0,0.216,0,0,0.216,0,0.1984,0.2976
0.08,0.168,0.90909,0.04,0.072,1.25,0,0.032,0,0,0.032,0,0,0.032,0,0,0.032,0,0.2112,0.3648
0.056,-0.024,-0.7,0,-0.08,-0,0,-0.08,-0,0,-0.08,-0,0,-0.08,-0,0,-0.08,-0,-0.4224,1.0672
0.376,0.192,-2.0435,0.368,0.184,-2,0.368,0.184,-2,0,-0.184,-0,0,-0.184,-0,0,-0.184,-0,-0.3472,0.864
0,-0.088,-0,0,-0.088,-0,0,-0.088,-0,0,-0.088,-0,0,-0.088,-0,0,-0.088,-0,-0.3968,1.0048
0.12,0.088,-3.75,0.072,0.04,-2.25,0,-0.032,-0,0,-0.032,-0,0,-0.032,-0,0,-0.032,-0,-0.2992,0.736
0,-0.016,-0,0,-0.016,-0,0,-0.016,-0,0,-0.016,-0,0,-0.016,-0,0,-0.016,-0,-0.3776,0.9456
0.16,0,-1,0.088,-0.072,-0.55,0.064,-0.096,-0.4,0,-0.16,-0,0,-0.16,-0,0,-0.16,-0,-0.2832,0.752
0,0.264,0,0,0.264,0,0,0.264,0,0,0.264,0,0,0.264,0,0,0.264,0,0.216,0.3568
0.064,0.128,1,0,0.064,0,0,0.064,0,0,0.064,0,0,0.064,0,0,0.064,0,0.2032,0.3616
0,-0.008,-0,0,-0.008,-0,0,-0.008,-0,0,-0.008,-0,0,-0.008,-0,0,-0.008,-0,-0.36,0.9296
0,-0.088,-0,0,-0.088,-0,0,-0.088,-0,0,-0.088,-0,0,-0.088,-0,0,-0.088,-0,-0.2608,0.688
0.064,0.12,1.1429,0,0.056,0,0,0.056,0,0,0.056,0,0,0.056,0,0,0.056,0,0.1984,0.3312
0.048,0.088,1.2,0,0.04,0,0,0.04,0,0,0.04,0,0,0.04,0,0,0.04,0,0.1872,0.312
0.12,-0.104,-0.53571,0.048,-0.176,-0.21429,0,-0.224,-0,0,-0.224,-0,0,-0.224,-0,0,-0.224,-0,-0.3136,0.784
0.272,0.472,1.36,0.152,0.296,1.0556,0.112,0.232,0.93333,0.048,0.104,0.85714,0,0.056,0,0,0.056,0,0.1856,0.2944
0.056,-0.064,-0.46667,0,-0.12,-0,0,-0.12,-0,0,-0.12,-0,0,-0.12,-0,0,-0.12,-0,-0.2848,0.7744
0,-0.128,-0,0,-0.128,-0,0,-0.128,-0,0,-0.128,-0,0,-0.128,-0,0,-0.128,-0,-0.4496,1.0864
0.104,0.2,1.0833,0.056,0.104,1.1667,0,0.048,0,0,0.048,0,0,0.048,0,0,0.048,0,0.1472,0.3376
0.12,0.192,1.6667,0.072,0.104,2.25,0.016,0.024,2,0,0.008,0,0,0.008,0,0,0.008,0,0.1856,0.5616
0.152,0.256,1.4615,0.096,0.168,1.3333,0.064,0.112,1.3333,0,0.048,0,0,0.048,0,0,0.048,0,0.1808,0.4208
0.12,0.232,1.0714,0.072,0.152,0.9,0.04,0.088,0.83333,0,0.048,0,0,0.048,0,0,0.048,0,0.168,0.4576
0.104,0.216,0.92857,0.064,0.128,1,0.032,0.048,2,0,0.016,0,0,0.016,0,0,0.016,0,0.1888,0.2784
0.08,-0.144,-0.35714,0,-0.224,-0,0,-0.224,-0,0,-0.224,-0,0,-0.224,-0,0,-0.224,-0,-0.392,0.9776
0.032,-0.176,-0.15385,0,-0.208,-0,0,-0.208,-0,0,-0.208,-0,0,-0.208,-0,0,-0.208,-0,-0.2752,0.7456
0.36,0.536,2.0455,0.272,0.4,2.125,0.184,0.288,1.7692,0.064,0.12,1.1429,0,0.056,0,0,0.056,0,0.1872,0.328
0.088,-0.016,-0.84615,0.056,-0.048,-0.53846,0.024,-0.08,-0.23077,0,-0.104,-0,0,-0.104,-0,0,-0.104,-0,-0.2256,0.5728
0,-0.072,-0,0,-0.072,-0,0,-0.072,-0,0,-0.072,-0,0,-0.072,-0,0,-0.072,-0,-0.2944,0.744
-0.08,-0.04,-2,-0.08,-0.04,-2,0.264,0.304,6.6,0.064,0.104,1.6,0,0.04,0,0,0.04,0,0.1216,0.4496
0,-0.032,-0,0,-0.032,-0,0,-0.032,-0,0,-0.032,-0,0,-0.032,-0,0,-0.032,-0,-0.3552,0.7776
0.048,-0.032,-0.6,0.312,0.232,-3.9,0.16,0.08,-2,0.056,-0.024,-0.7,0,-0.08,-0,0,-0.08,-0,-0.4432,0.9136
0.096,0.152,1.7143,0.056,0.096,1.4,0.04,0.064,1.6667,0,0.024,0,0,0.024,0,0,0.024,0,0.1344,0.1904
0,0.056,0,0,0.056,0,0,0.056,0,0,0.056,0,0,0.056,0,0,0.056,0,0.1104,0.1664
0.04,0.072,1.25,0,0.032,0,0,0.032,0,0,0.032,0,0,0.032,0,0,0.032,0,0.1312,0.3696
0.36,0.488,2.8125,0.216,0.304,2.4545,0.12,0.184,1.875,0,0.064,0,0,0.064,0,0,0.064,0,0.152,0.4512
0.16,0.224,2.5,0.056,0.096,1.4,0,0.04,0,0,0.04,0,0,0.04,0,0,0.04,0,0.1424,0.4448
0.136,0.2,2.125,0.064,0.104,1.6,0.008,0.016,1,0,0.008,0,0,0.008,0,0,0.008,0,0.1392,0.5312
0,-0.36,-0,0,-0.36,-0,0,-0.36,-0,0,-0.36,-0,0,-0.36,-0,0,-0.36,-0,0.088,0.2688
0.072,0.104,2.25,0,0.032,0,0,0.032,0,0,0.032,0,0,0.032,0,0,0.032,0,0.0912,0.1872
0.136,0.208,1.8889,0.08,0.128,1.6667,0.048,0.08,1.5,0,0.032,0,0,0.032,0,0,0.032,0,0.104,0.3344
0.08,-0.088,-0.47619,0,-0.168,-0,0,-0.168,-0,0,-0.168,-0,0,-0.168,-0,0,-0.168,-0,-0.4272,0.8848
0,-0.16,-0,0,-0.16,-0,0,-0.16,-0,0,-0.16,-0,0,-0.16,-0,0,-0.16,-0,-0.416,0.9136
0.064,-0.024,-0.72727,0.032,-0.056,-0.36364,0,-0.088,-0,0,-0.088,-0,0,-0.088,-0,0,-0.088,-0,-0.3136,0.7408
-0.024,-0.088,0.375,0.368,0.304,-5.75,0.296,0.232,-4.625,0.096,0.032,-1.5,0,-0.064,-0,0,-0.064,-0,-0.3696,0.8912
0.128,0.056,-1.7778,0.056,-0.016,-0.77778,0.016,-0.056,-0.22222,0,-0.072,-0,0,-0.072,-0,0,-0.072,-0,-0.2512,0.5216
0.136,0.2,2.125,0.08,0.12,2,0.048,0.072,2,0,0.024,0,0,0.024,0,0,0.024,0,0.112,0.1824
0.136,-0.032,-0.80952,0.088,-0.08,-0.52381,0.064,-0.104,-0.38095,0,-0.168,-0,0,-0.168,-0,0,-0.168,-0,-0.3168,0.8272
0.136,0.192,2.4286,0.088,0.128,2.2,0.048,0.08,1.5,0,0.032,0,0,0.032,0,0,0.032,0,0.104,0.1952
0.104,0.144,2.6,0.008,0.008,Inf,0,0,NaN,0,0,NaN,0,0,NaN,0,0,NaN,0.0976,0.3344
0,-0.176,-0,0,-0.176,-0,0,-0.176,-0,0,-0.176,-0,0,-0.176,-0,0,-0.176,-0,0.0896,0.3744
0.136,0.2,2.125,0.08,0.12,2,0,0.04,0,0,0.04,0,0,0.04,0,0,0.04,0,0.0704,0.2048
0.08,0.12,2,0,0.04,0,0,0.04,0,0,0.04,0,0,0.04,0,0,0.04,0,0.1328,0.4416
0.08,0.136,1.4286,0.04,0.072,1.25,0.016,0.024,2,0,0.008,0,0,0.008,0,0,0.008,0,0.1408,0.2112
0.064,0.112,1.3333,0.016,0.032,1,0,0.016,0,0,0.016,0,0,0.016,0,0,0.016,0,0.1424,0.1968
0,-0.048,-0,0,-0.048,-0,0,-0.048,-0,0,-0.048,-0,0,-0.048,-0,0,-0.048,-0,0.1376,0.208
0,0.08,0,0,0.08,0,0,0.08,0,0,0.08,0,0,0.08,0,0,0.08,0,0.1264,0.2176
0.16,0.28,1.3333,0.056,0.08,2.3333,0,0.024,0,0,0.024,0,0,0.024,0,0,0.024,0,0.1376,0.1296
0,0.104,0,0,0.104,0,0,0.104,0,0,0.104,0,0,0.104,0,0,0.104,0,0.1184,0.1392
0.032,0.152,0.26667,0,0.12,0,0,0.12,0,0,0.12,0,0,0.12,0,0,0.12,0,0.168,0.2
0.088,0.08,-11,0.056,0.048,-7,0.032,0.024,-4,0,-0.008,-0,0,-0.008,-0,0,-0.008,-0,-0.1888,0.5008
0,-0.016,-0,0,-0.016,-0,0,-0.016,-0,0,-0.016,-0,0,-0.016,-0,0,-0.016,-0,-0.16,0.3904
0.504,0.416,-5.7273,0.272,0.184,-3.0909,0.256,0.168,-2.9091,0.112,0.024,-1.2727,0,-0.088,-0,0,-0.088,-0,-0.2784,0.6448
-0.072,-0.088,4.5,0.536,0.52,-33.5,0.504,0.488,-31.5,0.424,0.408,-26.5,0.096,0.08,-6,0.016,0,-1,-0.2304,0.56
0,0.248,0,0,0.248,0,0,0.248,0,0,0.248,0,0,0.248,0,0,0.248,0,0.1232,0.2112
0.104,0.272,0.61905,0.072,0.16,0.81818,0.048,0.12,0.66667,0,0.072,0,0,0.072,0,0,0.072,0,0.112,0.1728
0,-0.128,-0,0,-0.128,-0,0,-0.128,-0,0,-0.128,-0,0,-0.128,-0,0,-0.128,-0,-0.208,0.5712
0.088,-0.032,-0.73333,0.048,-0.072,-0.4,0,-0.12,-0,0,-0.12,-0,0,-0.12,-0,0,-0.12,-0,-0.1984,0.5312
0.032,0.056,1.3333,0,0.024,0,0,0.024,0,0,0.024,0,0,0.024,0,0,0.024,0,0.1584,0.1824
0.112,0.08,-3.5,0.072,0.04,-2.25,0.056,0.024,-1.75,0,-0.032,-0,0,-0.032,-0,0,-0.032,-0,-0.1968,0.5168
0.128,0.096,-4,0.072,0.04,-2.25,0.04,0.008,-1.25,0,-0.032,-0,0,-0.032,-0,0,-0.032,-0,-0.1712,0.4368
-0.104,0.056,-0.65,-0.104,0.056,-0.65,-0.104,0.056,-0.65,0.128,0.224,1.3333,0.04,0.072,1.25,0,0.032,0,0.176,0.2384
0.072,0.128,1.2857,0.04,0.072,1.25,0,0.032,0,0,0.032,0,0,0.032,0,0,0.032,0,0.1392,0.1968
0,0.032,0,0,0.032,0,0,0.032,0,0,0.032,0,0,0.032,0,0,0.032,0,0.16,0.1952
0.056,0.088,1.75,0,0.032,0,0,0.032,0,0,0.032,0,0,0.032,0,0,0.032,0,0.136,0.2176
0,-0.008,-0,0,-0.008,-0,0,-0.008,-0,0,-0.008,-0,0,-0.008,-0,0,-0.008,-0,0.1184,0.1792
0.104,0.128,4.3333,0.064,0.088,2.6667,0.04,0.064,1.6667,0,0.024,0,0,0.024,0,0,0.024,0,-0.2176,0.5248
0.12,0.024,-1.25,0.12,0.024,-1.25,0.12,0.024,-1.25,0.136,0.04,-1.4167,0.04,-0.056,-0.41667,0,-0.096,-0,-0.1888,0.4992
0,0.04,0,0,0.04,0,0,0.04,0,0,0.04,0,0,0.04,0,0,0.04,0,0.1488,0.1952
0,0.112,0,0,0.112,0,0,0.112,0,0,0.112,0,0,0.112,0,0,0.112,0,0.1504,0.2016
0.04,0.072,1.25,0,0.032,0,0,0.032,0,0,0.032,0,0,0.032,0,0,0.032,0,0.1632,0.1424
0,0,NaN,0,0,NaN,0,0,NaN,0,0,NaN,0,0,NaN,0,0,NaN,0.1184,0.1584
0.064,-0.12,-0.34783,0.024,-0.16,-0.13043,0,-0.184,-0,0,-0.184,-0,0,-0.184,-0,0,-0.184,-0,-0.1824,0.4992
0,-0.136,-0,0,-0.136,-0,0,-0.136,-0,0,-0.136,-0,0,-0.136,-0,0,-0.136,-0,-0.1904,0.5376
0,-0.144,-0,0,-0.144,-0,0,-0.144,-0,0,-0.144,-0,0,-0.144,-0,0,-0.144,-0,-0.1536,0.4496
0,0.024,0,0,0.024,0,0,0.024,0,0,0.024,0,0,0.024,0,0,0.024,0,0.1616,0.1728
0.072,-0.104,-0.40909,0.032,-0.144,-0.18182,0,-0.176,-0,0,-0.176,-0,0,-0.176,-0,0,-0.176,-0,-0.208,0.5584
0.104,0.168,1.625,0.072,0.12,1.5,0.048,0.08,1.5,0,0.032,0,0,0.032,0,0,0.032,0,0.1376,0.208
0.096,0.248,0.63158,0.096,0.176,1.2,0,0.08,0,0,0.08,0,0,0.08,0,0,0.08,0,0.1376,0.1776
0.08,0.024,-1.4286,0.04,-0.016,-0.71429,0,-0.056,-0,0,-0.056,-0,0,-0.056,-0,0,-0.056,-0,-0.192,0.5248
0,0.112,0,0,0.112,0,0,0.112,0,0,0.112,0,0,0.112,0,0,0.112,0,0.1472,0.16
0.08,0.112,2.5,0.08,0.112,2.5,0.504,0.536,15.75,0,0.032,0,0,0.032,0,0,0.032,0,-0.1536,0.4432
0.136,0.232,1.4167,0.096,0.168,1.3333,0.072,0.128,1.2857,0.016,0.032,1,0,0.016,0,0,0.016,0,0.1168,0.168
0,-0.072,-0,0,-0.072,-0,0,-0.072,-0,0,-0.072,-0,0,-0.072,-0,0,-0.072,-0,0.1488,0.2064
0.072,0.112,1.8,0.032,0.048,2,0,0.016,0,0,0.016,0,0,0.016,0,0,0.016,0,0.1472,0.2064
0,0.024,0,0,0.024,0,0,0.024,0,0,0.024,0,0,0.024,0,0,0.024,0,0.1776,0.2032
0,-0.128,-0,0,-0.128,-0,0,-0.128,-0,0,-0.128,-0,0,-0.128,-0,0,-0.128,-0,-0.184,0.4672
0.064,-0.144,-0.30769,0,-0.208,-0,0,-0.208,-0,0,-0.208,-0,0,-0.208,-0,0,-0.208,-0,-0.2128,0.5952
0,-0.048,-0,0,-0.048,-0,0,-0.048,-0,0,-0.048,-0,0,-0.048,-0,0,-0.048,-0,0.1456,0.2448
0,-0.056,-0,0,-0.056,-0,0,-0.056,-0,0,-0.056,-0,0,-0.056,-0,0,-0.056,-0,0.1616,0.2176
0.128,0.064,-2,0.088,0.024,-1.375,0.064,0,-1,0,-0.064,-0,0,-0.064,-0,0,-0.064,-0,-0.2176,0.6
0.112,0.192,1.4,0.064,0.112,1.3333,0.04,0.072,1.25,0,0.032,0,0,0.032,0,0,0.032,0,0.152,0.2496
0,-0.216,-0,0,-0.216,-0,0,-0.216,-0,0,-0.216,-0,0,-0.216,-0,0,-0.216,-0,-0.1984,0.5184
0.104,0.176,1.4444,0.064,0.112,1.3333,0.04,0.072,1.25,0,0.032,0,0,0.032,0,0,0.032,0,0.1648,0.2192
0.136,0.224,1.5455,0.088,0.152,1.375,0.072,0.12,1.5,0,0.048,0,0,0.048,0,0,0.048,0,0.1536,0.2256
-0.008,0.144,-0.052632,-0.008,0.128,-0.058824,0.184,0.28,1.9167,0.088,0.144,1.5714,0,0.056,0,0,0.056,0,0.1472,0.336
0,-0.168,-0,0,-0.168,-0,0,-0.168,-0,0,-0.168,-0,0,-0.168,-0,0,-0.168,-0,-0.184,0.5248
0,0.16,0,0,0.16,0,0,0.16,0,0,0.16,0,0,0.16,0,0,0.16,0,0.1168,0.2
0,-0.032,-0,0,-0.032,-0,0,-0.032,-0,0,-0.032,-0,0,-0.032,-0,0,-0.032,-0,0.1568,0.2128
0,-0.016,-0,0,-0.016,-0,0,-0.016,-0,0,-0.016,-0,0,-0.016,-0,0,-0.016,-0,0.1504,0.1424
0,0.232,0,0,0.232,0,0,0.232,0,0,0.232,0,0,0.232,0,0,0.232,0,0.1648,0.216
0.072,0.184,0.64286,0.032,0.144,0.28571,0,0.112,0,0,0.112,0,0,0.112,0,0,0.112,0,-0.2272,0.592
0.136,0.232,1.4167,0.088,0.152,1.375,0.064,0.112,1.3333,0,0.048,0,0,0.048,0,0,0.048,0,0.16,0.2032
0,0.088,0,0,0.088,0,0,0.088,0,0,0.088,0,0,0.088,0,0,0.088,0,0.1248,0.1568
0,-0.176,-0,0,-0.176,-0,0,-0.176,-0,0,-0.176,-0,0,-0.176,-0,0,-0.176,-0,-0.1792,0.5264
0.072,0.12,1.5,0.024,0.032,3,0,0.008,0,0,0.008,0,0,0.008,0,0,0.008,0,0.1296,0.2432
0,-0.152,-0,0,-0.152,-0,0,-0.152,-0,0,-0.152,-0,0,-0.152,-0,0,-0.152,-0,0.1408,0.192
0.08,0.128,1.6667,0.04,0.064,1.6667,0,0.024,0,0,0.024,0,0,0.024,0,0,0.024,0,0.1168,0.2208
0,0.104,0,0,0.104,0,0,0.104,0,0,0.104,0,0,0.104,0,0,0.104,0,0.1408,0.192
0.248,0.104,-1.7222,0.248,0.104,-1.7222,0.248,0.104,-1.7222,0,-0.144,-0,0,-0.144,-0,0,-0.144,-0,-0.1184,0.3424
0,0.064,0,0,0.064,0,0,0.064,0,0,0.064,0,0,0.064,0,0,0.064,0,0.1424,0.2016
0,0.008,0,0,0.008,0,0,0.008,0,0,0.008,0,0,0.008,0,0,0.008,0,0.1168,0.1888
0,0.08,0,0,0.08,0,0,0.08,0,0,0.08,0,0,0.08,0,0,0.08,0,0.1408,0.1968
0.032,0.048,2,0,0.016,0,0,0.016,0,0,0.016,0,0,0.016,0,0,0.016,0,0.0832,0.2368
0.032,0.048,2,0,0.016,0,0,0.016,0,0,0.016,0,0,0.016,0,0,0.016,0,0.0832,0.2368
0,0.016,0,0,0.016,0,0,0.016,0,0,0.016,0,0,0.016,0,0,0.016,0,0.1456,0.5328
0,-0.032,-0,0,-0.032,-0,0,-0.032,-0,0,-0.032,-0,0,-0.032,-0,0,-0.032,-0,0.1248,0.4688
0,-0.056,-0,0,-0.056,-0,0,-0.056,-0,0,-0.056,-0,0,-0.056,-0,0,-0.056,-0,0.1072,0.48
0.104,-0.088,-0.54167,0.024,-0.168,-0.125,0,-0.192,-0,0,-0.192,-0,0,-0.192,-0,0,-0.192,-0,-0.5824,1.3312
0.088,-0.152,-0.36667,0,-0.24,-0,0,-0.24,-0,0,-0.24,-0,0,-0.24,-0,0,-0.24,-0,-0.488,1.1248
0.232,0.384,1.5263,0.144,0.248,1.3846,0.112,0.192,1.4,0.008,0.016,1,0,0.008,0,0,0.008,0,0.1888,0.3664
0.232,0.384,1.5263,0.144,0.248,1.3846,0.112,0.192,1.4,0.008,0.016,1,0,0.008,0,0,0.008,0,0.1888,0.3664
0.136,0.232,1.4167,0.088,0.152,1.375,0.048,0.088,1.2,0,0.04,0,0,0.04,0,0,0.04,0,0.192,0.3888
0.08,-0.216,-0.27027,0.016,-0.28,-0.054054,0,-0.296,-0,0,-0.296,-0,0,-0.296,-0,0,-0.296,-0,-0.2864,0.7072
0,-0.144,-0,0,-0.144,-0,0,-0.144,-0,0,-0.144,-0,0,-0.144,-0,0,-0.144,-0,0.1472,0.2672
0.104,0.184,1.3,0.048,0.088,1.2,0,0.04,0,0,0.04,0,0,0.04,0,0,0.04,0,0.1744,0.3648
0.064,-0.192,-0.25,0,-0.256,-0,0,-0.256,-0,0,-0.256,-0,0,-0.256,-0,0,-0.256,-0,-0.3936,0.9536
0,0.128,0,0,0.128,0,0,0.128,0,0,0.128,0,0,0.128,0,0,0.128,0,0.1232,0.2528
0.416,0.144,-1.5294,0.16,-0.112,-0.58824,0.112,-0.16,-0.41176,0,-0.272,-0,0,-0.272,-0,0,-0.272,-0,-0.32,0.7024
0.808,0.56,-3.2581,0.16,-0.088,-0.64516,0,-0.248,-0,0,-0.248,-0,0,-0.248,-0,0,-0.248,-0,-0.3904,0.968
0.12,-0.112,-0.51724,0.056,-0.176,-0.24138,0,-0.232,-0,0,-0.232,-0,0,-0.232,-0,0,-0.232,-0,-0.4576,1.104
0.072,0.12,1.5,0,0.048,0,0,0.048,0,0,0.048,0,0,0.048,0,0,0.048,0,0.152,0.3872
0.096,0.16,1.5,0.008,0.016,1,0,0.008,0,0,0.008,0,0,0.008,0,0,0.008,0,0.1504,0.3904
0.12,-0.28,-0.3,0.064,-0.336,-0.16,0.024,-0.376,-0.06,0,-0.4,-0,0,-0.4,-0,0,-0.4,-0,-0.52,1.2224
0.048,0.08,1.5,0,0.032,0,0,0.032,0,0,0.032,0,0,0.032,0,0,0.032,0,0.112,0.248
0.208,0.288,2.6,0.168,0.224,3,0.136,0.184,2.8333,0,0.048,0,0,0.048,0,0,0.048,0,0.0992,0.3968
0.208,0.288,2.6,0.168,0.224,3,0.136,0.184,2.8333,0,0.048,0,0,0.048,0,0,0.048,0,0.0992,0.3968
0.024,0.048,1,0.4,0.424,16.667,0.24,0.264,10,0.136,0.16,5.6667,0,0.024,0,0,0.024,0,-0.3648,0.7312
0.16,0.136,-6.6667,0.048,0.024,-2,0,-0.024,-0,0,-0.024,-0,0,-0.024,-0,0,-0.024,-0,-0.552,1.1872
0.112,0.184,1.5556,0.04,0.072,1.25,0,0.032,0,0,0.032,0,0,0.032,0,0,0.032,0,0.1136,0.3472
0.12,-0.376,-0.24194,0.048,-0.448,-0.096774,0,-0.496,-0,0,-0.496,-0,0,-0.496,-0,0,-0.496,-0,-0.48,0.936
0.128,0.224,1.3333,0.024,0.04,1.5,0,0.016,0,0,0.016,0,0,0.016,0,0,0.016,0,0.2224,0.432
0,-0.208,-0,0,-0.208,-0,0,-0.208,-0,0,-0.208,-0,0,-0.208,-0,0,-0.208,-0,0.0992,0.256
0,-0.208,-0,0,-0.208,-0,0,-0.208,-0,0,-0.208,-0,0,-0.208,-0,0,-0.208,-0,-0.2336,0.808
0.096,0.192,1,0.048,0.112,0.75,0,0.064,0,0,0.064,0,0,0.064,0,0,0.064,0,0.1712,0.5792
0.112,0.216,1.0769,0.056,0.104,1.1667,0,0.048,0,0,0.048,0,0,0.048,0,0,0.048,0,0.3344,0.5248
0.112,0.216,1.0769,0.056,0.104,1.1667,0,0.048,0,0,0.048,0,0,0.048,0,0,0.048,0,0.3344,0.5248
0.12,-0.576,-0.17241,0.064,-0.632,-0.091954,0,-0.696,-0,0,-0.696,-0,0,-0.696,-0,0,-0.696,-0,-0.4048,1.0432
0,-0.24,-0,0,-0.24,-0,0,-0.24,-0,0,-0.24,-0,0,-0.24,-0,0,-0.24,-0,0.0816,0.24
0,-0.648,-0,0,-0.648,-0,0,-0.648,-0,0,-0.648,-0,0,-0.648,-0,0,-0.648,-0,-0.2496,0.6112
0.12,0.208,1.3636,0.064,0.112,1.3333,0,0.048,0,0,0.048,0,0,0.048,0,0,0.048,0,0.1296,0.3392
0,0.016,0,0,0.016,0,0,0.016,0,0,0.016,0,0,0.016,0,0,0.016,0,0.0848,0.28
0.128,0.216,1.4545,0.08,0.136,1.4286,0,0.056,0,0,0.056,0,0,0.056,0,0,0.056,0,0.112,0.2336
0,0.024,0,0,0.024,0,0,0.024,0,0,0.024,0,0,0.024,0,0,0.024,0,0.1024,0.2688
0.128,0.128,Inf,0.08,0.08,Inf,0.048,0.048,Inf,0,0,NaN,0,0,NaN,0,0,NaN,0.0864,0.3024
0,0.056,0,0,0.056,0,0,0.056,0,0,0.056,0,0,0.056,0,0,0.056,0,-0.232,0.4944
0.144,0.232,1.6364,0.096,0.152,1.7143,0,0.056,0,0,0.056,0,0,0.056,0,0,0.056,0,0.2848,0.3456
0.104,0.232,0.8125,0.056,0.136,0.7,0,0.08,0,0,0.08,0,0,0.08,0,0,0.08,0,0.1488,0.2624
0.128,0.248,1.0667,0.08,0.16,1,0.032,0.048,2,0,0.016,0,0,0.016,0,0,0.016,0,0.1856,0.3808
0,-0.152,-0,0,-0.152,-0,0,-0.152,-0,0,-0.152,-0,0,-0.152,-0,0,-0.152,-0,-0.2992,0.864
0.152,0.056,-1.5833,0.088,-0.008,-0.91667,0.056,-0.04,-0.58333,0,-0.096,-0,0,-0.096,-0,0,-0.096,-0,-0.2816,0.6848
0.112,0.184,1.5556,0.048,0.088,1.2,0,0.04,0,0,0.04,0,0,0.04,0,0,0.04,0,0.1792,0.3168
0,0,NaN,0,0,NaN,0,0,NaN,0,0,NaN,0,0,NaN,0,0,NaN,0.0736,0.1488
0.096,-0.216,-0.30769,0,-0.312,-0,0,-0.312,-0,0,-0.312,-0,0,-0.312,-0,0,-0.312,-0,-0.3344,0.824
0,0.08,0,0,0.08,0,0,0.08,0,0,0.08,0,0,0.08,0,0,0.08,0,0.104,0.28
0.152,-0.12,-0.55882,0.088,-0.184,-0.32353,0,-0.272,-0,0,-0.272,-0,0,-0.272,-0,0,-0.272,-0,-0.3296,0.7008
0,0.056,0,0,0.056,0,0,0.056,0,0,0.056,0,0,0.056,0,0,0.056,0,0.112,0.2064
0,-0.368,-0,0,-0.368,-0,0,-0.368,-0,0,-0.368,-0,0,-0.368,-0,0,-0.368,-0,-0.2208,0.6384
0,-0.08,-0,0,-0.08,-0,0,-0.08,-0,0,-0.08,-0,0,-0.08,-0,0,-0.08,-0,0.112,0.2032
0.152,0.216,2.375,0.096,0.144,2,0.056,0.088,1.75,0,0.032,0,0,0.032,0,0,0.032,0,0.0992,0.328
0.112,0.152,2.8,0.04,0.056,2.5,0,0.016,0,0,0.016,0,0,0.016,0,0,0.016,0,0.0928,0.3264
0,-0.352,-0,0,-0.352,-0,0,-0.352,-0,0,-0.352,-0,0,-0.352,-0,0,-0.352,-0,0.0976,0.3408
0,-0.392,-0,0,-0.392,-0,0,-0.392,-0,0,-0.392,-0,0,-0.392,-0,0,-0.392,-0,-0.304,0.6912
0.144,-0.24,-0.375,0.096,-0.288,-0.25,0.072,-0.312,-0.1875,0,-0.384,-0,0,-0.384,-0,0,-0.384,-0,-0.192,0.4656
0.168,-0.192,-0.46667,0.128,-0.232,-0.35556,0.096,-0.264,-0.26667,0,-0.36,-0,0,-0.36,-0,0,-0.36,-0,-0.3504,0.8288
0,-0.344,-0,0,-0.344,-0,0,-0.344,-0,0,-0.344,-0,0,-0.344,-0,0,-0.344,-0,0.1136,0.2672
0.128,-0.128,-0.5,0.088,-0.168,-0.34375,0.048,-0.208,-0.1875,0,-0.256,-0,0,-0.256,-0,0,-0.256,-0,-0.4544,1.0208
0.096,-0.248,-0.27907,0.04,-0.304,-0.11628,0,-0.344,-0,0,-0.344,-0,0,-0.344,-0,0,-0.344,-0,-0.2192,0.4784
0.288,0.392,2.7692,0.136,0.208,1.8889,0.096,0.152,1.7143,0,0.056,0,0,0.056,0,0,0.056,0,0.1504,0.4064
0,-0.424,-0,0,-0.424,-0,0,-0.424,-0,0,-0.424,-0,0,-0.424,-0,0,-0.424,-0,-0.408,0.9328
0.008,-0.424,-0.018519,0.488,0.056,-1.1296,0.448,0.016,-1.037,0.328,-0.104,-0.75926,0.048,-0.384,-0.11111,0,-0.432,-0,-0.3744,1.0064
0.208,-0.128,-0.61905,0.112,-0.224,-0.33333,0.088,-0.248,-0.2619,0,-0.336,-0,0,-0.336,-0,0,-0.336,-0,-0.4352,1.0448
0.104,0.192,1.1818,0.056,0.104,1.1667,0,0.048,0,0,0.048,0,0,0.048,0,0,0.048,0,0.1792,0.5488
0.496,0.048,-1.1071,0.208,-0.24,-0.46429,0.088,-0.36,-0.19643,0,-0.448,-0,0,-0.448,-0,0,-0.448,-0,-0.5504,1.3056
0.192,0.32,1.5,0.08,0.152,1.1111,0,0.072,0,0,0.072,0,0,0.072,0,0,0.072,0,0.1936,0.4624
0.272,-0.096,-0.73913,0.144,-0.224,-0.3913,0.104,-0.264,-0.28261,0,-0.368,-0,0,-0.368,-0,0,-0.368,-0,-0.36,0.9184
0.272,-0.096,-0.73913,0.144,-0.224,-0.3913,0.104,-0.264,-0.28261,0,-0.368,-0,0,-0.368,-0,0,-0.368,-0,-0.36,0.9184
-0.128,-0.368,0.53333,0.208,-0.032,-0.86667,0.136,-0.104,-0.56667,0.064,-0.176,-0.26667,0,-0.24,-0,0,-0.24,-0,-0.3152,0.8048
0.072,0.112,1.8,0.024,0.04,1.5,0,0.016,0,0,0.016,0,0,0.016,0,0,0.016,0,0.1712,0.2352
0.024,-0.048,-0.33333,0,-0.072,-0,0,-0.072,-0,0,-0.072,-0,0,-0.072,-0,0,-0.072,-0,-0.2176,0.5984
0.208,0.288,2.6,0.072,0.12,1.5,0.04,0.064,1.6667,0,0.024,0,0,0.024,0,0,0.024,0,0.1136,0.3344
0.12,-0.344,-0.25862,0.064,-0.4,-0.13793,0.016,-0.448,-0.034483,0,-0.464,-0,0,-0.464,-0,0,-0.464,-0,-0.1888,0.5152
0.064,-0.432,-0.12903,0,-0.496,-0,0,-0.496,-0,0,-0.496,-0,0,-0.496,-0,0,-0.496,-0,-0.4176,0.9584
0,-0.448,-0,0,-0.448,-0,0,-0.448,-0,0,-0.448,-0,0,-0.448,-0,0,-0.448,-0,-0.1296,0.3488
0,0.072,0,0,0.072,0,0,0.072,0,0,0.072,0,0,0.072,0,0,0.072,0,0.1568,0.4624
0.104,0.16,1.8571,0,0.056,0,0,0.056,0,0,0.056,0,0,0.056,0,0,0.056,0,0.1488,0.4736
0.064,0.104,1.6,0,0.04,0,0,0.04,0,0,0.04,0,0,0.04,0,0,0.04,0,0.1488,0.4624
0.064,0.104,1.6,0,0.04,0,0,0.04,0,0,0.04,0,0,0.04,0,0,0.04,0,0.1488,0.4624
0.128,0.232,1.2308,0.08,0.144,1.25,0.032,0.056,1.3333,0,0.024,0,0,0.024,0,0,0.024,0,0.1888,0.5616
0.056,0.08,2.3333,0,0.024,0,0,0.024,0,0,0.024,0,0,0.024,0,0,0.024,0,0.16,0.3936
0.144,0.24,1.5,0.096,0.16,1.5,0.048,0.08,1.5,0,0.032,0,0,0.032,0,0,0.032,0,0.1648,0.5616
0.344,0.496,2.2632,0.344,0.496,2.2632,0.152,0.304,1,0.032,0.056,1.3333,0,0.024,0,0,0.024,0,0.1728,0.2
0.032,0.096,0.5,0.032,0.072,0.8,0.032,0.048,2,0,0.016,0,0,0.016,0,0,0.016,0,0.1344,0.1968
0.064,-0.032,-0.66667,0,-0.096,-0,0,-0.096,-0,0,-0.096,-0,0,-0.096,-0,0,-0.096,-0,-0.3168,0.7744
0.072,0.12,1.5,0.032,0.048,2,0,0.016,0,0,0.016,0,0,0.016,0,0,0.016,0,0.1408,0.2864
0.088,0.144,1.5714,0.048,0.08,1.5,0.008,0.008,Inf,0,0,NaN,0,0,NaN,0,0,NaN,0.1152,0.248
0,0.088,0,0,0.088,0,0,0.088,0,0,0.088,0,0,0.088,0,0,0.088,0,0.0896,0.112
0.152,0.24,1.7273,0.088,0.144,1.5714,0.072,0.12,1.5,0,0.048,0,0,0.048,0,0,0.048,0,0.0944,0.1712
0.216,0.296,2.7,0.096,0.152,1.7143,0.04,0.072,1.25,0,0.032,0,0,0.032,0,0,0.032,0,0.1616,0.4096
0.168,-0.168,-0.5,0.048,-0.288,-0.14286,0,-0.336,-0,0,-0.336,-0,0,-0.336,-0,0,-0.336,-0,-0.424,1.0096
0.232,0.304,3.2222,0.12,0.168,2.5,0.064,0.096,2,0,0.032,0,0,0.032,0,0,0.032,0,0.1552,0.456
0.12,0.016,-1.1538,0.048,-0.056,-0.46154,0,-0.104,-0,0,-0.104,-0,0,-0.104,-0,0,-0.104,-0,-0.5136,1.1616
0.144,0.208,2.25,0.08,0.12,2,0.048,0.072,2,0,0.024,0,0,0.024,0,0,0.024,0,0.1344,0.4192
0.168,0.096,-2.3333,0.112,0.04,-1.5556,0.096,0.024,-1.3333,0.032,-0.04,-0.44444,0,-0.072,-0,0,-0.072,-0,-0.1952,0.472
0.096,0.056,-2.4,0.056,0.016,-1.4,0.032,-0.008,-0.8,0,-0.04,-0,0,-0.04,-0,0,-0.04,-0,-0.1856,0.4688
0.096,0.152,1.7143,0,0.056,0,0,0.056,0,0,0.056,0,0,0.056,0,0,0.056,0,0.0992,0.1856
0.072,0.12,1.5,0.032,0.056,1.3333,0,0.024,0,0,0.024,0,0,0.024,0,0,0.024,0,0.1216,0.224
0.056,0.096,1.4,0,0.04,0,0,0.04,0,0,0.04,0,0,0.04,0,0,0.04,0,0.1216,0.2176
0,-0.28,-0,0,-0.28,-0,0,-0.28,-0,0,-0.28,-0,0,-0.28,-0,0,-0.28,-0,-0.2384,0.584
0.104,-0.112,-0.48148,0.056,-0.16,-0.25926,0.024,-0.192,-0.11111,0,-0.216,-0,0,-0.216,-0,0,-0.216,-0,-0.4288,1.0304
0,-0.128,-0,0,-0.128,-0,0,-0.128,-0,0,-0.128,-0,0,-0.128,-0,0,-0.128,-0,0.1184,0.224
0,-0.112,-0,0,-0.112,-0,0,-0.112,-0,0,-0.112,-0,0,-0.112,-0,0,-0.112,-0,0.12,0.2176
0.072,0.112,1.8,0.032,0.048,2,0,0.016,0,0,0.016,0,0,0.016,0,0,0.016,0,0.12,0.2112
0.088,-0.152,-0.36667,0.048,-0.192,-0.2,0.024,-0.216,-0.1,0,-0.24,-0,0,-0.24,-0,0,-0.24,-0,-0.2112,0.5568
0,0.032,0,0,0.032,0,0,0.032,0,0,0.032,0,0,0.032,0,0,0.032,0,0.12,0.2288
0,-0.224,-0,0,-0.224,-0,0,-0.224,-0,0,-0.224,-0,0,-0.224,-0,0,-0.224,-0,-0.24,0.584
0.032,0.04,4,0,0.008,0,0,0.008,0,0,0.008,0,0,0.008,0,0,0.008,0,0.1008,0.2432
0,-0.104,-0,0,-0.104,-0,0,-0.104,-0,0,-0.104,-0,0,-0.104,-0,0,-0.104,-0,0.08,0.2016
0,-0.24,-0,0,-0.24,-0,0,-0.24,-0,0,-0.24,-0,0,-0.24,-0,0,-0.24,-0,-0.1584,0.4544
0.08,0.128,1.6667,0.032,0.056,1.3333,0,0.024,0,0,0.024,0,0,0.024,0,0,0.024,0,0.1184,0.1584
0.024,0.04,1.5,0,0.016,0,0,0.016,0,0,0.016,0,0,0.016,0,0,0.016,0,0.1216,0.1488
0.056,-0.04,-0.58333,0,-0.096,-0,0,-0.096,-0,0,-0.096,-0,0,-0.096,-0,0,-0.096,-0,-0.152,0.3936
0,-0.088,-0,0,-0.088,-0,0,-0.088,-0,0,-0.088,-0,0,-0.088,-0,0,-0.088,-0,-0.144,0.4176
0,0.112,0,0,0.112,0,0,0.112,0,0,0.112,0,0,0.112,0,0,0.112,0,0.112,0.1344
0.2,0.112,-2.2727,0.2,0.112,-2.2727,0.2,0.112,-2.2727,0.2,0.112,-2.2727,0.2,0.112,-2.2727,0.2,0.112,-2.2727,-0.2096,0.6
0.152,0.232,1.9,0.104,0.16,1.8571,0.048,0.072,2,0,0.024,0,0,0.024,0,0,0.024,0,0.176,0.4496
0,-0.512,-0,0,-0.512,-0,0,-0.512,-0,0,-0.512,-0,0,-0.512,-0,0,-0.512,-0,-0.168,0.4288
0.096,0.152,1.7143,0.024,0.04,1.5,0,0.016,0,0,0.016,0,0,0.016,0,0,0.016,0,0.2672,0.5136
0.112,-0.64,-0.14894,0.048,-0.704,-0.06383,0,-0.752,-0,0,-0.752,-0,0,-0.752,-0,0,-0.752,-0,-0.2432,0.6416
0,-0.992,-0,0,-0.992,-0,0,-0.992,-0,0,-0.992,-0,0,-0.992,-0,0,-0.992,-0,-0.3232,0.8368
0.128,0.184,2.2857,0.072,0.112,1.8,0.04,0.064,1.6667,0,0.024,0,0,0.024,0,0,0.024,0,0.1296,0.4224
0.112,0.04,-1.5556,0.056,-0.016,-0.77778,0,-0.072,-0,0,-0.072,-0,0,-0.072,-0,0,-0.072,-0,-0.4224,0.9216
0.152,0.216,2.375,0.096,0.136,2.4,0.064,0.088,2.6667,0,0.024,0,0,0.024,0,0,0.024,0,0.1488,0.3216
0.304,0.024,-1.0857,0.304,0.024,-1.0857,0.408,0.128,-1.4571,0.096,-0.184,-0.34286,0,-0.28,-0,0,-0.28,-0,-0.2432,0.6352
-0.424,-0.336,-4.8182,0.144,0.208,2.25,0.096,0.144,2,0,0.048,0,0,0.048,0,0,0.048,0,0.1104,0.2864
0.136,0.208,1.8889,0.088,0.136,1.8333,0.056,0.096,1.4,0,0.04,0,0,0.04,0,0,0.04,0,0.0928,0.1904
0.2,0.344,1.3889,0.168,0.248,2.1,0.072,0.112,1.8,0,0.04,0,0,0.04,0,0,0.04,0,0.104,0.2464
0,-0.056,-0,0,-0.056,-0,0,-0.056,-0,0,-0.056,-0,0,-0.056,-0,0,-0.056,-0,0.0832,0.1712
0.392,0.112,-1.4,0.176,-0.104,-0.62857,0.128,-0.152,-0.45714,0.032,-0.248,-0.11429,0,-0.28,-0,0,-0.28,-0,-0.3648,0.848
0.464,0.24,-2.0714,0.344,0.12,-1.5357,0.184,-0.04,-0.82143,0.088,-0.136,-0.39286,0,-0.224,-0,0,-0.224,-0,-0.2768,0.704
0,-0.112,-0,0,-0.112,-0,0,-0.112,-0,0,-0.112,-0,0,-0.112,-0,0,-0.112,-0,0.1328,0.4384
0.152,0.008,-1.0556,0.088,-0.056,-0.61111,0.056,-0.088,-0.38889,0,-0.144,-0,0,-0.144,-0,0,-0.144,-0,-0.368,0.896
-0.288,-0.2,-3.2727,0.056,0.096,1.4,0,0.04,0,0,0.04,0,0,0.04,0,0,0.04,0,0.1792,0.4032
0.232,0.352,1.9333,0.112,0.192,1.4,0.064,0.12,1.1429,0,0.056,0,0,0.056,0,0,0.056,0,0.1696,0.3968
0.16,0.28,1.3333,0.088,0.168,1.1,0.056,0.104,1.1667,0,0.048,0,0,0.048,0,0,0.048,0,0.2112,0.4336
0.128,0.216,1.4545,0.064,0.112,1.3333,0,0.048,0,0,0.048,0,0,0.048,0,0,0.048,0,0.1968,0.5632
0.128,0.224,1.3333,0.064,0.12,1.1429,0.008,0.008,Inf,0,0,NaN,0,0,NaN,0,0,NaN,0.2032,0.4256
0.24,0.352,2.1429,0.12,0.2,1.5,0.08,0.136,1.4286,0,0.056,0,0,0.056,0,0,0.056,0,0.1744,0.2672
0,0.192,0,0,0.192,0,0,0.192,0,0,0.192,0,0,0.192,0,0,0.192,0,0.1792,0.2688
0,0.192,0,0,0.192,0,0,0.192,0,0,0.192,0,0,0.192,0,0,0.192,0,0.1792,0.2688
0.088,0.16,1.2222,0.024,0.032,3,0,0.008,0,0,0.008,0,0,0.008,0,0,0.008,0,0.1888,0.4032
0.072,0.12,1.5,0,0.048,0,0,0.048,0,0,0.048,0,0,0.048,0,0,0.048,0,0.1824,0.4224
0.12,-0.272,-0.30612,0.072,-0.32,-0.18367,0.032,-0.36,-0.081633,0,-0.392,-0,0,-0.392,-0,0,-0.392,-0,-0.4272,1.0448
0.096,0.176,1.2,0.04,0.08,1,0,0.04,0,0,0.04,0,0,0.04,0,0,0.04,0,0.1936,0.4768
0.088,-0.232,-0.275,0.016,-0.304,-0.05,0,-0.32,-0,0,-0.32,-0,0,-0.32,-0,0,-0.32,-0,-0.3744,0.9008
0.08,0.136,1.4286,0,0.056,0,0,0.056,0,0,0.056,0,0,0.056,0,0,0.056,0,0.1888,0.5088
0.04,0.064,1.6667,0,0.024,0,0,0.024,0,0,0.024,0,0,0.024,0,0,0.024,0,0.16,0.4304
0.088,-0.192,-0.31429,0.032,-0.248,-0.11429,0,-0.28,-0,0,-0.28,-0,0,-0.28,-0,0,-0.28,-0,-0.3904,0.9248
0.112,-0.056,-0.66667,0.064,-0.104,-0.38095,0,-0.168,-0,0,-0.168,-0,0,-0.168,-0,0,-0.168,-0,-0.4816,1.1504
0.048,-0.168,-0.22222,0,-0.216,-0,0,-0.216,-0,0,-0.216,-0,0,-0.216,-0,0,-0.216,-0,-0.3824,0.9056
0.112,-0.072,-0.6087,0.064,-0.12,-0.34783,0,-0.184,-0,0,-0.184,-0,0,-0.184,-0,0,-0.184,-0,-0.52,1.2288
0,0.224,0,0,0.224,0,0,0.224,0,0,0.224,0,0,0.224,0,0,0.224,0,0.1584,0.4048
0.168,0.272,1.6154,0.112,0.184,1.5556,0.08,0.136,1.4286,0,0.056,0,0,0.056,0,0,0.056,0,0.1936,0.4576
0.08,0.136,1.4286,0,0.056,0,0,0.056,0,0,0.056,0,0,0.056,0,0,0.056,0,0.1552,0.4064
0.16,-0.328,-0.32787,0.096,-0.392,-0.19672,0.072,-0.416,-0.14754,0,-0.488,-0,0,-0.488,-0,0,-0.488,-0,-0.5024,1.2032
0.072,0.12,1.5,0,0.048,0,0,0.048,0,0,0.048,0,0,0.048,0,0,0.048,0,0.16,0.3968
0,0.368,0,0,0.368,0,0,0.368,0,0,0.368,0,0,0.368,0,0,0.368,0,0.1616,0.3872
0.048,-0.016,-0.75,0,-0.064,-0,0,-0.064,-0,0,-0.064,-0,0,-0.064,-0,0,-0.064,-0,-0.512,1.216
0.064,0.104,1.6,0,0.04,0,0,0.04,0,0,0.04,0,0,0.04,0,0,0.04,0,0.1584,0.4032
0.08,0.152,1.1111,0.016,0.024,2,0,0.008,0,0,0.008,0,0,0.008,0,0,0.008,0,0.168,0.424
0,0.16,0,0,0.16,0,0,0.16,0,0,0.16,0,0,0.16,0,0,0.16,0,0.152,0.3328
0.16,-0.072,-0.68966,0.088,-0.144,-0.37931,0.048,-0.184,-0.2069,0,-0.232,-0,0,-0.232,-0,0,-0.232,-0,-0.5088,1.2656
0.12,0.208,1.3636,0.064,0.12,1.1429,0.024,0.04,1.5,0,0.016,0,0,0.016,0,0,0.016,0,0.1984,0.4752
0.12,-0.048,-0.71429,0.072,-0.096,-0.42857,0.024,-0.144,-0.14286,0,-0.168,-0,0,-0.168,-0,0,-0.168,-0,-0.4704,1.1408
0.12,0.208,1.3636,0.064,0.112,1.3333,0.024,0.04,1.5,0,0.016,0,0,0.016,0,0,0.016,0,0.2032,0.4832
0.112,0.2,1.2727,0.064,0.12,1.1429,0.024,0.04,1.5,0,0.016,0,0,0.016,0,0,0.016,0,0.2,0.4752
0.112,0.2,1.2727,0.056,0.104,1.1667,0,0.048,0,0,0.048,0,0,0.048,0,0,0.048,0,0.2,0.4608
0,0.008,0,0,0.008,0,0,0.008,0,0,0.008,0,0,0.008,0,0,0.008,0,0.2016,0.4128
0.096,0.16,1.5,0.048,0.072,2,0,0.024,0,0,0.024,0,0,0.024,0,0,0.024,0,0.2016,0.4576
0.12,0.2,1.5,0.064,0.112,1.3333,0.016,0.024,2,0,0.008,0,0,0.008,0,0,0.008,0,0.2048,0.4688
0.104,-0.32,-0.24528,0.048,-0.376,-0.11321,0,-0.424,-0,0,-0.424,-0,0,-0.424,-0,0,-0.424,-0,-0.4464,1.1152
0.064,0.104,1.6,0,0.04,0,0,0.04,0,0,0.04,0,0,0.04,0,0,0.04,0,0.136,0.3808
0.104,0.192,1.1818,0.056,0.096,1.4,0,0.04,0,0,0.04,0,0,0.04,0,0,0.04,0,0.2064,0.408
0.04,0.168,0.3125,0.112,0.184,1.5556,0.008,0.064,0.14286,0,0.056,0,0,0.056,0,0,0.056,0,0.0848,0.112
0.136,0.072,-2.125,0.08,0.016,-1.25,0.048,-0.016,-0.75,0,-0.064,-0,0,-0.064,-0,0,-0.064,-0,-0.4384,0.968
0.096,0.184,1.0909,0.04,0.072,1.25,0,0.032,0,0,0.032,0,0,0.032,0,0,0.032,0,0.2016,0.528
0.16,0.264,1.5385,0.056,0.104,1.1667,0,0.048,0,0,0.048,0,0,0.048,0,0,0.048,0,0.1792,0.4208
0,-0.312,-0,0,-0.312,-0,0,-0.312,-0,0,-0.312,-0,0,-0.312,-0,0,-0.312,-0,-0.36,0.9792
0.064,0.112,1.3333,0,0.048,0,0,0.048,0,0,0.048,0,0,0.048,0,0,0.048,0,0.1728,0.4496
0.072,0.136,1.125,0,0.064,0,0,0.064,0,0,0.064,0,0,0.064,0,0,0.064,0,0.176,0.4448
0.184,0.304,1.5333,0.104,0.192,1.1818,0.08,0.152,1.1111,0,0.072,0,0,0.072,0,0,0.072,0,0.1728,0.36
0,-0.056,-0,0,-0.056,-0,0,-0.056,-0,0,-0.056,-0,0,-0.056,-0,0,-0.056,-0,-0.44,1.1456
0.072,-0.048,-0.6,0,-0.12,-0,0,-0.12,-0,0,-0.12,-0,0,-0.12,-0,0,-0.12,-0,-0.5536,1.352
0.136,0.232,1.4167,0.056,0.104,1.1667,0,0.048,0,0,0.048,0,0,0.048,0,0,0.048,0,0.2384,0.5152
0.12,-0.104,-0.53571,0.024,-0.2,-0.10714,0,-0.224,-0,0,-0.224,-0,0,-0.224,-0,0,-0.224,-0,-0.5136,1.2544
0.28,0.08,-1.4,0.152,-0.048,-0.76,0.088,-0.112,-0.44,0,-0.2,-0,0,-0.2,-0,0,-0.2,-0,-0.3328,0.8944
0.192,0.288,2,0,0.096,0,0,0.096,0,0,0.096,0,0,0.096,0,0,0.096,0,0.2448,0.496
0.24,0.136,-2.3077,0.16,0.056,-1.5385,0.112,0.008,-1.0769,0,-0.104,-0,0,-0.104,-0,0,-0.104,-0,-0.3808,1.0016
-0.008,0.032,-0.2,-0.008,0.032,-0.2,-0.008,0.032,-0.2,0.24,0.28,6,0.128,0.168,3.2,0.088,0.128,2.2,0.0768,0.2368
0.248,0.312,3.875,0.152,0.216,2.375,0,0.064,0,0,0.064,0,0,0.064,0,0,0.064,0,-0.5184,1.2928
0.856,0.864,107,0.224,0.232,28,0.144,0.152,18,0,0.008,0,0,0.008,0,0,0.008,0,-0.3584,0.9344
0.096,0.176,1.2,0.032,0.064,1,0,0.032,0,0,0.032,0,0,0.032,0,0,0.032,0,0.1872,0.496
0.016,0.016,Inf,0,0,NaN,0,0,NaN,0,0,NaN,0,0,NaN,0,0,NaN,0.12,0.1984
0.192,0.328,1.4118,0.192,0.28,2.1818,0.064,0.104,1.6,0,0.04,0,0,0.04,0,0,0.04,0,0.1408,0.2736
0.096,-0.04,-0.70588,0.048,-0.088,-0.35294,0,-0.136,-0,0,-0.136,-0,0,-0.136,-0,0,-0.136,-0,-0.288,0.72
0,-0.04,-0,0,-0.04,-0,0,-0.04,-0,0,-0.04,-0,0,-0.04,-0,0,-0.04,-0,-0.1472,0.4864
0,0.144,0,0,0.144,0,0,0.144,0,0,0.144,0,0,0.144,0,0,0.144,0,0.176,0.4
0.24,0.336,2.5,0.176,0.24,2.75,0.088,0.128,2.2,0,0.04,0,0,0.04,0,0,0.04,0,0.144,0.4208
0.04,-0.368,-0.098039,0,-0.408,-0,0,-0.408,-0,0,-0.408,-0,0,-0.408,-0,0,-0.408,-0,-0.472,1.0976
0,-0.224,-0,0,-0.224,-0,0,-0.224,-0,0,-0.224,-0,0,-0.224,-0,0,-0.224,-0,0.2496,0.1824
0.04,0.072,1.25,0,0.032,0,0,0.032,0,0,0.032,0,0,0.032,0,0,0.032,0,0.1104,0.28
0.04,0.072,1.25,0,0.032,0,0,0.032,0,0,0.032,0,0,0.032,0,0,0.032,0,0.1104,0.28
0.056,0.096,1.4,0,0.04,0,0,0.04,0,0,0.04,0,0,0.04,0,0,0.04,0,0.1312,0.3856
0,0.04,0,0,0.04,0,0,0.04,0,0,0.04,0,0,0.04,0,0,0.04,0,0.1216,0.304
0,-0.136,-0,0,-0.136,-0,0,-0.136,-0,0,-0.136,-0,0,-0.136,-0,0,-0.136,-0,-0.4016,0.9152
0,-0.12,-0,0,-0.12,-0,0,-0.12,-0,0,-0.12,-0,0,-0.12,-0,0,-0.12,-0,-0.3776,0.9296
0.096,0.16,1.5,0.048,0.08,1.5,0.008,0.008,Inf,0,0,NaN,0,0,NaN,0,0,NaN,0.1152,0.312
0.032,0.048,2,0,0.016,0,0,0.016,0,0,0.016,0,0,0.016,0,0,0.016,0,0.1264,0.2976
0.112,0.168,2,0.064,0.096,2,0,0.032,0,0,0.032,0,0,0.032,0,0,0.032,0,0.1424,0.4672
0.112,0.168,2,0.04,0.064,1.6667,0,0.024,0,0,0.024,0,0,0.024,0,0,0.024,0,0.1248,0.4272
0.072,0.104,2.25,0,0.032,0,0,0.032,0,0,0.032,0,0,0.032,0,0,0.032,0,0.1184,0.2208
0.04,0.064,1.6667,0,0.024,0,0,0.024,0,0,0.024,0,0,0.024,0,0,0.024,0,0.1248,0.3232
0.328,0.024,-1.0789,0.24,-0.064,-0.78947,0.112,-0.192,-0.36842,0.048,-0.256,-0.15789,0,-0.304,-0,0,-0.304,-0,-0.2272,0.4896
0.056,-0.216,-0.20588,0.024,-0.248,-0.088235,0,-0.272,-0,0,-0.272,-0,0,-0.272,-0,0,-0.272,-0,-0.2128,0.5408
0.088,-0.272,-0.24444,0.088,-0.272,-0.24444,0.088,-0.272,-0.24444,0.496,0.136,-1.3778,0.28,-0.08,-0.77778,0.192,-0.168,-0.53333,-0.264,0.776
0.136,0.216,1.7,0.08,0.128,1.6667,0.024,0.04,1.5,0,0.016,0,0,0.016,0,0,0.016,0,0.0896,0.2912
0.064,0.016,-1.3333,0.064,0.016,-1.3333,0.352,0.304,-7.3333,0.08,0.032,-1.6667,0,-0.048,-0,0,-0.048,-0,-0.2576,0.776
0,-0.048,-0,0,-0.048,-0,0.352,0.304,-7.3333,0.08,0.032,-1.6667,0,-0.048,-0,0,-0.048,-0,-0.2576,0.776
0.096,0.192,1,0.048,0.112,0.75,0,0.064,0,0,0.064,0,0,0.064,0,0,0.064,0,0.1744,0.4896
0.12,-0.296,-0.28846,0.08,-0.336,-0.19231,0.048,-0.368,-0.11538,0,-0.416,-0,0,-0.416,-0,0,-0.416,-0,-0.4752,1.136
0.096,0.2,0.92308,0,0.104,0,0,0.104,0,0,0.104,0,0,0.104,0,0,0.104,0,0.1504,0.4592
0.488,0.688,2.44,0,0.2,0,0,0.2,0,0,0.2,0,0,0.2,0,0,0.2,0,0.2,0.248
0.104,0.168,1.625,0,0.064,0,0,0.064,0,0,0.064,0,0,0.064,0,0,0.064,0,0.176,0.504
0.136,0.232,1.4167,0.088,0.16,1.2222,0.056,0.096,1.4,0,0.04,0,0,0.04,0,0,0.04,0,0.1792,0.5456
0.088,0.048,-2.2,0.016,-0.024,-0.4,0,-0.04,-0,0,-0.04,-0,0,-0.04,-0,0,-0.04,-0,-0.3008,0.792
0,-0.024,-0,0,-0.024,-0,0,-0.024,-0,0,-0.024,-0,0,-0.024,-0,0,-0.024,-0,0.1488,0.168
0.504,0.704,2.52,0.496,0.696,2.48,0.488,0.688,2.44,0.144,0.272,1.125,0.032,0.064,1,0,0.032,0,0.1888,0.4528
0.12,0.128,15,0.08,0.088,10,0.04,0.048,5,0,0.008,0,0,0.008,0,0,0.008,0,0.0464,0.304
0.112,0.232,0.93333,0.072,0.168,0.75,0.04,0.088,0.83333,0,0.048,0,0,0.048,0,0,0.048,0,0.1504,0.288
0,0.104,0,0,0.104,0,0,0.104,0,0,0.104,0,0,0.104,0,0,0.104,0,0.104,0.3248
0.128,0.096,-4,0.08,0.048,-2.5,0.048,0.016,-1.5,0,-0.032,-0,0,-0.032,-0,0,-0.032,-0,-0.2624,0.6736
0,-0.032,-0,0,-0.032,-0,0,-0.032,-0,0,-0.032,-0,0,-0.032,-0,0,-0.032,-0,0.1968,0.368
0.096,-0.064,-0.6,0,-0.16,-0,0,-0.16,-0,0,-0.16,-0,0,-0.16,-0,0,-0.16,-0,-0.4544,1.1136
0.136,0.24,1.3077,0.088,0.168,1.1,0.016,0.016,Inf,0,0,NaN,0,0,NaN,0,0,NaN,0.1104,0.3296
0.16,0.296,1.1765,0.16,0.296,1.1765,0.16,0.296,1.1765,0.16,0.296,1.1765,0.16,0.296,1.1765,0.16,0.296,1.1765,0.1568,0.4144
0.136,0.064,-1.8889,0.096,0.024,-1.3333,0.064,-0.008,-0.88889,0,-0.072,-0,0,-0.072,-0,0,-0.072,-0,-0.4224,0.8448
0,0.392,0,0,0.392,0,0,0.392,0,0,0.392,0,0,0.392,0,0,0.392,0,0.1488,0.3296
0,-0.064,-0,0,-0.064,-0,0,-0.064,-0,0,-0.064,-0,0,-0.064,-0,0,-0.064,-0,0.1008,0.2144
0,-0.152,-0,0,-0.152,-0,0,-0.152,-0,0,-0.152,-0,0,-0.152,-0,0,-0.152,-0,-0.3504,0.9072
0.352,0.36,44,0.144,0.152,18,0.104,0.112,13,0,0.008,0,0,0.008,0,0,0.008,0,-0.456,1.08
-0.072,-0.016,-1.2857,-0.072,-0.048,-3,0,0.024,0,0,0.024,0,0,0.024,0,0,0.024,0,0.104,0.3424
0.12,0.168,2.5,0.04,0.056,2.5,0,0.016,0,0,0.016,0,0,0.016,0,0,0.016,0,0.0944,0.3088
0.224,-0.152,-0.59574,0.104,-0.272,-0.2766,0,-0.376,-0,0,-0.376,-0,0,-0.376,-0,0,-0.376,-0,-0.6928,1.6576
0.208,0.312,2,0.08,0.128,1.6667,0,0.048,0,0,0.048,0,0,0.048,0,0,0.048,0,0.2752,0.6816
0.192,0.312,1.6,0.096,0.168,1.3333,0.04,0.072,1.25,0,0.032,0,0,0.032,0,0,0.032,0,0.168,0.4496
0.12,-0.112,-0.51724,0.064,-0.168,-0.27586,0,-0.232,-0,0,-0.232,-0,0,-0.232,-0,0,-0.232,-0,-0.5808,1.1696
0.096,0.168,1.3333,0.04,0.064,1.6667,0,0.024,0,0,0.024,0,0,0.024,0,0,0.024,0,0.1248,0.2608
0.096,0.168,1.3333,0.04,0.064,1.6667,0,0.024,0,0,0.024,0,0,0.024,0,0,0.024,0,0.1248,0.2608
0.08,0.136,1.4286,0,0.056,0,0,0.056,0,0,0.056,0,0,0.056,0,0,0.056,0,0.1872,0.408
0.088,0.16,1.2222,0,0.072,0,0,0.072,0,0,0.072,0,0,0.072,0,0,0.072,0,0.1968,0.448
0.112,0.008,-1.0769,0,-0.104,-0,0,-0.104,-0,0,-0.104,-0,0,-0.104,-0,0,-0.104,-0,-0.5248,1.2816
0.112,0.168,2,0,0.056,0,0,0.056,0,0,0.056,0,0,0.056,0,0,0.056,0,-0.5248,1.2816
0.112,0.048,-1.75,0,-0.064,-0,0,-0.064,-0,0,-0.064,-0,0,-0.064,-0,0,-0.064,-0,-0.6384,1.4608
0,-0.064,-0,0,-0.064,-0,0,-0.064,-0,0,-0.064,-0,0,-0.064,-0,0,-0.064,-0,0.08,0.28
0.104,0.16,1.8571,0,0.056,0,0,0.056,0,0,0.056,0,0,0.056,0,0,0.056,0,0.16,0.4288
0.112,0.176,1.75,0,0.064,0,0,0.064,0,0,0.064,0,0,0.064,0,0,0.064,0,0.1728,0.584
0.664,0.704,16.6,0.664,0.704,16.6,0.664,0.696,20.75,0,0.032,0,0,0.032,0,0,0.032,0,0.0576,0.1504
-0.584,-0.392,-3.0417,0.272,0.392,2.2667,0.152,0.256,1.4615,0,0.104,0,0,0.104,0,0,0.104,0,0.1504,0.4784
0,-0.256,-0,0,-0.256,-0,0,-0.256,-0,0,-0.256,-0,0,-0.256,-0,0,-0.256,-0,0.232,0.6144
0.096,-0.24,-0.28571,0,-0.336,-0,0,-0.336,-0,0,-0.336,-0,0,-0.336,-0,0,-0.336,-0,-0.344,0.9088
0,-0.448,-0,0,-0.448,-0,0,-0.448,-0,0,-0.448,-0,0,-0.448,-0,0,-0.448,-0,-0.224,0.4624
0,-0.496,-0,0,-0.496,-0,0,-0.496,-0,0,-0.496,-0,0,-0.496,-0,0,-0.496,-0,0.1184,0.288
0.224,0.392,1.3333,0.136,0.264,1.0625,0.112,0.216,1.0769,0.064,0.112,1.3333,0,0.048,0,0,0.048,0,0.2016,0.5072
0.224,0.392,1.3333,0.136,0.264,1.0625,0.112,0.216,1.0769,0.064,0.112,1.3333,0,0.048,0,0,0.048,0,0.2016,0.5072
0.384,0.472,4.3636,0.144,0.2,2.5714,0.104,0.152,2.1667,0.008,0.008,Inf,0,0,NaN,0,0,NaN,0.0912,0.3696
0,-0.136,-0,0,-0.136,-0,0,-0.136,-0,0,-0.136,-0,0,-0.136,-0,0,-0.136,-0,-0.2528,0.68
0.264,0.136,-2.0625,0.112,-0.016,-0.875,0.08,-0.048,-0.625,0,-0.128,-0,0,-0.128,-0,0,-0.128,-0,-0.5552,1.2208
0.264,0.136,-2.0625,0.112,-0.016,-0.875,0.08,-0.048,-0.625,0,-0.128,-0,0,-0.128,-0,0,-0.128,-0,-0.5552,1.2208
0.176,0.288,1.5714,0.064,0.144,0.8,0,0.08,0,0,0.08,0,0,0.08,0,0,0.08,0,0.1984,0.6848
0.128,0.224,1.3333,0.064,0.128,1,0,0.064,0,0,0.064,0,0,0.064,0,0,0.064,0,0.2064,0.688
-0.24,-0.128,-2.1429,0.056,0.12,0.875,0,0.064,0,0,0.064,0,0,0.064,0,0,0.064,0,0.1712,0.4864
0.104,0.168,1.625,0.064,0.104,1.6,0.032,0.048,2,0,0.016,0,0,0.016,0,0,0.016,0,0.1856,0.2064
0,-0.168,-0,0,-0.168,-0,0,-0.168,-0,0,-0.168,-0,0,-0.168,-0,0,-0.168,-0,0.1152,0.1552
0.064,0.112,1.3333,0,0.048,0,0,0.048,0,0,0.048,0,0,0.048,0,0,0.048,0,0.1248,0.304
0.08,0.152,1.1111,0,0.072,0,0,0.072,0,0,0.072,0,0,0.072,0,0,0.072,0,0.1616,0.4832
0,0.024,0,0,0.024,0,0,0.024,0,0,0.024,0,0,0.024,0,0,0.024,0,-0.5248,1.2688
0.04,-0.016,-0.71429,0,-0.056,-0,0,-0.056,-0,0,-0.056,-0,0,-0.056,-0,0,-0.056,-0,-0.2512,0.6336
0.168,0.272,1.6154,0.104,0.176,1.4444,0.08,0.136,1.4286,0,0.056,0,0,0.056,0,0,0.056,0,0.1632,0.512
0.064,0.12,1.1429,0,0.056,0,0,0.056,0,0,0.056,0,0,0.056,0,0,0.056,0,0.1488,0.3344
0.192,0.36,1.1429,0.192,0.36,1.1429,0.192,0.36,1.1429,0.2,0.368,1.1905,0.04,0.08,1,0,0.04,0,0.1888,0.352
0.096,0.184,1.0909,0.016,0.024,2,0,0.008,0,0,0.008,0,0,0.008,0,0,0.008,0,0.1856,0.3456
0.2,0.328,1.5625,0.112,0.208,1.1667,0.072,0.144,1,0,0.072,0,0,0.072,0,0,0.072,0,0.1872,0.352
0.264,-0.064,-0.80488,0.128,-0.2,-0.39024,0.088,-0.24,-0.26829,0,-0.328,-0,0,-0.328,-0,0,-0.328,-0,-0.368,0.912
0.16,-0.168,-0.4878,0.08,-0.248,-0.2439,0.04,-0.288,-0.12195,0,-0.328,-0,0,-0.328,-0,0,-0.328,-0,-0.3824,0.9472
0,-0.288,-0,0,-0.288,-0,0,-0.288,-0,0,-0.288,-0,0,-0.288,-0,0,-0.288,-0,-0.3808,0.9504
0.288,0.072,-1.3333,0.128,-0.088,-0.59259,0.072,-0.144,-0.33333,0,-0.216,-0,0,-0.216,-0,0,-0.216,-0,-0.4992,1.1984
0.08,-0.128,-0.38462,0,-0.208,-0,0,-0.208,-0,0,-0.208,-0,0,-0.208,-0,0,-0.208,-0,-0.5088,1.2608
0,-0.296,-0,0,-0.296,-0,0,-0.296,-0,0,-0.296,-0,0,-0.296,-0,0,-0.296,-0,0.12,0.2256
0,0.208,0,0,0.208,0,0,0.208,0,0,0.208,0,0,0.208,0,0,0.208,0,0.1744,0.2064
0.168,0.112,-3,0,-0.056,-0,0,-0.056,-0,0,-0.056,-0,0,-0.056,-0,0,-0.056,-0,-0.632,1.6336
0.28,0.016,-1.0606,0.136,-0.128,-0.51515,0.072,-0.192,-0.27273,0,-0.264,-0,0,-0.264,-0,0,-0.264,-0,-0.2208,0.5424
0,-0.192,-0,0,-0.192,-0,0,-0.192,-0,0,-0.192,-0,0,-0.192,-0,0,-0.192,-0,0.12,0.2416
0,-0.32,-0,0,-0.32,-0,0,-0.32,-0,0,-0.32,-0,0,-0.32,-0,0,-0.32,-0,0.1168,0.2944
0.096,0.168,1.3333,0.048,0.08,1.5,0,0.032,0,0,0.032,0,0,0.032,0,0,0.032,0,0.1648,0.264
0.104,0.184,1.3,0.064,0.112,1.3333,0.008,0.008,Inf,0,0,NaN,0,0,NaN,0,0,NaN,0.1776,0.4688
0.096,0.168,1.3333,0.04,0.064,1.6667,0,0.024,0,0,0.024,0,0,0.024,0,0,0.024,0,0.1536,0.248
0.352,0.024,-1.0732,0.184,-0.144,-0.56098,0.104,-0.224,-0.31707,0,-0.328,-0,0,-0.328,-0,0,-0.328,-0,-0.3568,0.9088
0,-0.272,-0,0,-0.272,-0,0,-0.272,-0,0,-0.272,-0,0,-0.272,-0,0,-0.272,-0,0.0784,0.168
0.112,0.176,1.75,0.056,0.088,1.75,0,0.032,0,0,0.032,0,0,0.032,0,0,0.032,0,0.1056,0.3312
0.112,0.176,1.75,0.056,0.088,1.75,0,0.032,0,0,0.032,0,0,0.032,0,0,0.032,0,0.1056,0.3312
0,-0.912,-0,0,-0.912,-0,0,-0.912,-0,0,-0.912,-0,0,-0.912,-0,0,-0.912,-0,0.1312,0.312
0.128,-0.856,-0.13008,0,-0.984,-0,0,-0.984,-0,0,-0.984,-0,0,-0.984,-0,0,-0.984,-0,-0.3264,0.5856
0.112,-0.84,-0.11765,0.064,-0.888,-0.067227,0.048,-0.904,-0.05042,0,-0.952,-0,0,-0.952,-0,0,-0.952,-0,-0.2256,0.5232
0,-0.776,-0,0,-0.776,-0,0,-0.776,-0,0,-0.776,-0,0,-0.776,-0,0,-0.776,-0,0.0992,0.464
0.04,-0.856,-0.044643,0.04,-0.856,-0.044643,0,-0.896,-0,0,-0.896,-0,0,-0.896,-0,0,-0.896,-0,-0.2944,0.7632
0.08,-0.832,-0.087719,0.032,-0.88,-0.035088,0,-0.912,-0,0,-0.912,-0,0,-0.912,-0,0,-0.912,-0,-0.2928,0.7344
0.208,0.352,1.4444,0.12,0.224,1.1538,0.088,0.16,1.2222,0,0.072,0,0,0.072,0,0,0.072,0,0.1936,0.4624
0.104,0.192,1.1818,0.032,0.048,2,0,0.016,0,0,0.016,0,0,0.016,0,0,0.016,0,0.1936,0.464
0.128,-0.544,-0.19048,0.064,-0.608,-0.095238,0,-0.672,-0,0,-0.672,-0,0,-0.672,-0,0,-0.672,-0,-0.4064,0.9968
0.048,0.096,1,0,0.048,0,0,0.048,0,0,0.048,0,0,0.048,0,0,0.048,0,0.2304,0.6096
0.12,-0.224,-0.34884,0.064,-0.28,-0.18605,0,-0.344,-0,0,-0.344,-0,0,-0.344,-0,0,-0.344,-0,-0.5184,1.0848
-0.256,-0.152,-2.4615,-0.256,-0.192,-4,-0.256,-0.208,-5.3333,0,0.048,0,0,0.048,0,0,0.048,0,0.1584,0.2
0.128,0.232,1.2308,0.064,0.12,1.1429,0,0.056,0,0,0.056,0,0,0.056,0,0,0.056,0,0.1904,0.5232
0.24,-0.304,-0.44118,0.112,-0.432,-0.20588,0.08,-0.464,-0.14706,0,-0.544,-0,0,-0.544,-0,0,-0.544,-0,-0.5808,1.416
0.248,-0.328,-0.43056,0.104,-0.472,-0.18056,0.04,-0.536,-0.069444,0,-0.576,-0,0,-0.576,-0,0,-0.576,-0,-0.5344,1.312
0.112,0.248,0.82353,0.096,0.184,1.0909,0.064,0.128,1,0,0.064,0,0,0.064,0,0,0.064,0,0.2192,0.512
0.112,0.208,1.1667,0.056,0.104,1.1667,0,0.048,0,0,0.048,0,0,0.048,0,0,0.048,0,0.1808,0.4368
0.064,0.128,1,0,0.064,0,0,0.064,0,0,0.064,0,0,0.064,0,0,0.064,0,0.2096,0.4528
0.376,0.544,2.2381,0.232,0.36,1.8125,0.16,0.264,1.5385,0.04,0.08,1,0,0.04,0,0,0.04,0,0.192,0.4144
0.112,0.2,1.2727,0.072,0.12,1.5,0.032,0.048,2,0,0.016,0,0,0.016,0,0,0.016,0,0.1888,0.4224
0.056,0.224,0.33333,0.272,0.392,2.2667,0.208,0.312,2,0.136,0.2,2.125,0,0.064,0,0,0.064,0,0.1616,0.3936
0.216,0.24,9,0.176,0.2,7.3333,0.128,0.152,5.3333,0.032,0.056,1.3333,0,0.024,0,0,0.024,0,-0.3424,0.76
-0.056,0.056,-0.5,-0.056,0.032,-0.63636,-0.056,0.024,-0.7,0,0.08,0,0,0.08,0,0,0.08,0,0.1312,0.328
0.256,0.096,-1.6,0.136,-0.024,-0.85,0.104,-0.056,-0.65,0,-0.16,-0,0,-0.16,-0,0,-0.16,-0,-0.3984,0.8656
0.208,0.296,2.3636,0.128,0.184,2.2857,0.096,0.136,2.4,0,0.04,0,0,0.04,0,0,0.04,0,0.1104,0.4288
0.016,0.192,0.090909,0.184,0.296,1.6429,0.104,0.184,1.3,0,0.08,0,0,0.08,0,0,0.08,0,0.0784,0.304
0.168,0.152,-10.5,0.112,0.096,-7,0.048,0.032,-3,0,-0.016,-0,0,-0.016,-0,0,-0.016,-0,-0.4992,1.1184
0.144,0.168,6,0.016,0.024,2,0,0.008,0,0,0.008,0,0,0.008,0,0,0.008,0,0.096,0.4464
-0.352,-0.336,-22,-0.352,-0.336,-22,0,0.016,0,0,0.016,0,0,0.016,0,0,0.016,0,0.1152,0.4304
0,-0.168,-0,0,-0.168,-0,0,-0.168,-0,0,-0.168,-0,0,-0.168,-0,0,-0.168,-0,0.1584,0.4528
0.144,-0.128,-0.52941,0.088,-0.184,-0.32353,0.056,-0.216,-0.20588,0,-0.272,-0,0,-0.272,-0,0,-0.272,-0,-0.472,1.1312
0.112,0.184,1.5556,0.064,0.104,1.6,0,0.04,0,0,0.04,0,0,0.04,0,0,0.04,0,0.144,0.4528
0.104,0.184,1.3,0.056,0.104,1.1667,0,0.048,0,0,0.048,0,0,0.048,0,0,0.048,0,0.1264,0.3136
0.192,-0.184,-0.51064,0.08,-0.296,-0.21277,0,-0.376,-0,0,-0.376,-0,0,-0.376,-0,0,-0.376,-0,-0.52,1.2352
-0.096,0.064,-0.6,0.184,0.312,1.4375,0.08,0.184,0.76923,0,0.104,0,0,0.104,0,0,0.104,0,0.1408,0.3648
0.096,0.168,1.3333,0.04,0.064,1.6667,0,0.024,0,0,0.024,0,0,0.024,0,0,0.024,0,0.1312,0.3984
-0.104,0.064,-0.61905,-0.104,-0.008,-1.0833,0.064,0.112,1.3333,0,0.048,0,0,0.048,0,0,0.048,0,0.1536,0.4192
0.096,0.184,1.0909,0.056,0.104,1.1667,0,0.048,0,0,0.048,0,0,0.048,0,0,0.048,0,0.1616,0.368
0.128,0.232,1.2308,0.064,0.136,0.88889,0.032,0.064,1,0,0.032,0,0,0.032,0,0,0.032,0,0.1952,0.6288
0.112,0.216,1.0769,0.048,0.096,1,0,0.048,0,0,0.048,0,0,0.048,0,0,0.048,0,0.2416,0.6304
0.2,0.32,1.6667,0.072,0.152,0.9,0.032,0.064,1,0,0.032,0,0,0.032,0,0,0.032,0,0.1984,0.4064
0,0.096,0,0,0.096,0,0,0.096,0,0,0.096,0,0,0.096,0,0,0.096,0,0.168,0.464
0.096,-0.072,-0.57143,0.04,-0.128,-0.2381,0,-0.168,-0,0,-0.168,-0,0,-0.168,-0,0,-0.168,-0,-0.296,0.6816
0.224,0.04,-1.2174,0.104,-0.08,-0.56522,0.064,-0.12,-0.34783,0,-0.184,-0,0,-0.184,-0,0,-0.184,-0,-0.5568,1.2896
-0.2,-0.032,-1.1905,-0.2,-0.032,-1.1905,0.32,0.448,2.5,0.088,0.152,1.375,0,0.064,0,0,0.064,0,0.1696,0.488
0.144,0,-1,0.064,-0.08,-0.44444,0.032,-0.112,-0.22222,0,-0.144,-0,0,-0.144,-0,0,-0.144,-0,-0.2992,0.712
0.112,0.192,1.4,0.056,0.104,1.1667,0,0.048,0,0,0.048,0,0,0.048,0,0,0.048,0,0.1728,0.5056
0.104,0.184,1.3,0.048,0.088,1.2,0,0.04,0,0,0.04,0,0,0.04,0,0,0.04,0,0.176,0.5168
0.184,0.248,2.875,0.056,0.088,1.75,0,0.032,0,0,0.032,0,0,0.032,0,0,0.032,0,0.12,0.3984
0.128,0.208,1.6,0.048,0.096,1,0,0.048,0,0,0.048,0,0,0.048,0,0,0.048,0,0.12,0.2624
1.064,0.728,-3.1667,0.96,0.624,-2.8571,0.936,0.6,-2.7857,0,-0.336,-0,0,-0.336,-0,0,-0.336,-0,-0.4656,1.0848
0.272,0.064,-1.3077,0.136,-0.072,-0.65385,0.088,-0.12,-0.42308,0,-0.208,-0,0,-0.208,-0,0,-0.208,-0,-0.4768,1.1088
0.16,-0.12,-0.57143,0.064,-0.216,-0.22857,0.032,-0.248,-0.11429,0,-0.28,-0,0,-0.28,-0,0,-0.28,-0,-0.36,0.8496
0.088,-0.104,-0.45833,0.024,-0.168,-0.125,0,-0.192,-0,0,-0.192,-0,0,-0.192,-0,0,-0.192,-0,-0.4784,1.1152
0.32,0.04,-1.1429,0.16,-0.12,-0.57143,0.104,-0.176,-0.37143,0.024,-0.256,-0.085714,0,-0.28,-0,0,-0.28,-0,-0.3072,0.7808
0,-0.088,-0,0,-0.088,-0,0,-0.088,-0,0,-0.088,-0,0,-0.088,-0,0,-0.088,-0,0.1296,0.4704
0.104,0.192,1.1818,0.064,0.12,1.1429,0.024,0.048,1,0,0.024,0,0,0.024,0,0,0.024,0,0.1264,0.4512
0.096,0.152,1.7143,0.048,0.072,2,0,0.024,0,0,0.024,0,0,0.024,0,0,0.024,0,0.1136,0.4272
0.216,0.344,1.6875,0.04,0.064,1.6667,0,0.024,0,0,0.024,0,0,0.024,0,0,0.024,0,0.1376,0.2352
0.096,0.176,1.2,0.048,0.104,0.85714,0,0.056,0,0,0.056,0,0,0.056,0,0,0.056,0,0.128,0.4624
0.08,0.032,-1.6667,0,-0.048,-0,0,-0.048,-0,0,-0.048,-0,0,-0.048,-0,0,-0.048,-0,-0.4624,1.0112
0,0.296,0,0,0.296,0,0,0.296,0,0,0.296,0,0,0.296,0,0,0.296,0,0.1168,0.4608
0.104,0.176,1.4444,0.056,0.104,1.1667,0,0.048,0,0,0.048,0,0,0.048,0,0,0.048,0,0.1504,0.5968
0.096,0.024,-1.3333,0.056,-0.016,-0.77778,0,-0.072,-0,0,-0.072,-0,0,-0.072,-0,0,-0.072,-0,-0.5472,1.2736
0.096,0.184,1.0909,0.048,0.088,1.2,0,0.04,0,0,0.04,0,0,0.04,0,0,0.04,0,0.1824,0.5552
0.072,-0.4,-0.15254,0,-0.472,-0,0,-0.472,-0,0,-0.472,-0,0,-0.472,-0,0,-0.472,-0,-0.5584,1.2976
0.264,0.4,1.9412,0.12,0.224,1.1538,0.08,0.152,1.1111,0,0.072,0,0,0.072,0,0,0.072,0,0.2128,0.6112
0.16,0.28,1.3333,0.088,0.176,1,0.048,0.096,1,0,0.048,0,0,0.048,0,0,0.048,0,0.2144,0.6544
0.12,0.208,1.3636,0.048,0.088,1.2,0,0.04,0,0,0.04,0,0,0.04,0,0,0.04,0,0.1936,0.5872
0.616,0.8,3.3478,0.264,0.392,2.0625,0.176,0.28,1.6923,0.04,0.072,1.25,0,0.032,0,0,0.032,0,0.1488,0.4944
0.096,0.184,1.0909,0.048,0.096,1,0,0.048,0,0,0.048,0,0,0.048,0,0,0.048,0,0.1632,0.448
0,-0.112,-0,0,-0.112,-0,0,-0.112,-0,0,-0.112,-0,0,-0.112,-0,0,-0.112,-0,0.12,0.3408
0.128,0.232,1.2308,0.072,0.136,1.125,0.04,0.064,1.6667,0,0.024,0,0,0.024,0,0,0.024,0,0.2144,0.5568
0.104,0.192,1.1818,0.064,0.12,1.1429,0.032,0.056,1.3333,0,0.024,0,0,0.024,0,0,0.024,0,0.1568,0.4512
0.048,0.096,1,0,0.048,0,0,0.048,0,0,0.048,0,0,0.048,0,0,0.048,0,0.1408,0.4272
0.104,0.192,1.1818,0.048,0.096,1,0,0.048,0,0,0.048,0,0,0.048,0,0,0.048,0,0.1376,0.4432
0.344,0.096,-1.3871,0.184,-0.064,-0.74194,0.104,-0.144,-0.41935,0,-0.248,-0,0,-0.248,-0,0,-0.248,-0,-0.4304,1.0304
0.104,-0.08,-0.56522,0.056,-0.128,-0.30435,0,-0.184,-0,0,-0.184,-0,0,-0.184,-0,0,-0.184,-0,-0.664,1.5696
0.128,-0.048,-0.72727,0.072,-0.104,-0.40909,0.032,-0.144,-0.18182,0,-0.176,-0,0,-0.176,-0,0,-0.176,-0,-0.4768,1.1616
0.096,-0.04,-0.70588,0.032,-0.104,-0.23529,0,-0.136,-0,0,-0.136,-0,0,-0.136,-0,0,-0.136,-0,-0.552,1.2944
0,0.2,0,0,0.2,0,0,0.2,0,0,0.2,0,0,0.2,0,0,0.2,0,0.0864,0.2624
0,0.2,0,0,0.2,0,0,0.2,0,0,0.2,0,0,0.2,0,0,0.2,0,0.0864,0.2624
0.08,0.144,1.25,0,0.064,0,0,0.064,0,0,0.064,0,0,0.064,0,0,0.064,0,0.1504,0.3888
0.08,0.144,1.25,0,0.064,0,0,0.064,0,0,0.064,0,0,0.064,0,0,0.064,0,0.1504,0.3888
0,-0.272,-0,0,-0.272,-0,0,-0.272,-0,0,-0.272,-0,0,-0.272,-0,0,-0.272,-0,-0.176,0.5504
0,-0.016,-0,0,-0.016,-0,0,-0.016,-0,0,-0.016,-0,0,-0.016,-0,0,-0.016,-0,0.1808,0.2464
0.032,0.048,2,0,0.016,0,0,0.016,0,0,0.016,0,0,0.016,0,0,0.016,0,0.0976,0.3056
0,-0.232,-0,0,-0.232,-0,0,-0.232,-0,0,-0.232,-0,0,-0.232,-0,0,-0.232,-0,0.0928,0.232
0.032,0.056,1.3333,0,0.024,0,0,0.024,0,0,0.024,0,0,0.024,0,0,0.024,0,0.1056,0.2256
0.088,0.136,1.8333,0.032,0.056,1.3333,0,0.024,0,0,0.024,0,0,0.024,0,0,0.024,0,0.0944,0.1968
0.184,0,-1,0.088,-0.096,-0.47826,0,-0.184,-0,0,-0.184,-0,0,-0.184,-0,0,-0.184,-0,-0.5552,1.3072
0.112,0.184,1.5556,0,0.072,0,0,0.072,0,0,0.072,0,0,0.072,0,0,0.072,0,0.184,0.5648
0.104,0.16,1.8571,0,0.056,0,0,0.056,0,0,0.056,0,0,0.056,0,0,0.056,0,0.1872,0.4128
0.112,0.056,-2,0.368,0.312,-6.5714,0.36,0.304,-6.4286,0.352,0.296,-6.2857,0.296,0.24,-5.2857,0.2,0.144,-3.5714,-0.1712,0.4384
0.008,-0.048,-0.14286,0,-0.056,-0,0,-0.056,-0,0,-0.056,-0,0,-0.056,-0,0,-0.056,-0,-0.1952,0.5664
0.12,0.16,3,0.064,0.104,1.6,0,0.04,0,0,0.04,0,0,0.04,0,0,0.04,0,0.152,0.3216
0.16,0.08,-2,0.088,0.008,-1.1,0,-0.08,-0,0,-0.08,-0,0,-0.08,-0,0,-0.08,-0,-0.2784,0.6352
0.496,0.48,-31,0.312,0.296,-19.5,0.224,0.208,-14,0.064,0.048,-4,0,-0.016,-0,0,-0.016,-0,-0.448,1.0752
-0.472,-0.4,-6.5556,0.016,0.024,2,0,0.008,0,0,0.008,0,0,0.008,0,0,0.008,0,0.1648,0.2112
0.512,0.008,-1.0159,0.208,-0.296,-0.4127,0.168,-0.336,-0.33333,0.136,-0.368,-0.26984,0.136,-0.368,-0.26984,0.032,-0.472,-0.063492,-0.1168,0.3664
-0.112,-0.472,0.31111,-0.112,-0.472,0.31111,-0.112,-0.472,0.31111,0.28,-0.08,-0.77778,0.128,-0.232,-0.35556,0.032,-0.328,-0.088889,-0.4864,1.2416
0.24,-0.208,-0.53571,0.12,-0.328,-0.26786,0.08,-0.368,-0.17857,0,-0.448,-0,0,-0.448,-0,0,-0.448,-0,-0.3664,0.8832
0.128,0.208,1.6,0.024,0.048,1,0,0.024,0,0,0.024,0,0,0.024,0,0,0.024,0,0.192,0.4896
0.224,-0.296,-0.43077,0.112,-0.408,-0.21538,0.064,-0.456,-0.12308,0,-0.52,-0,0,-0.52,-0,0,-0.52,-0,-0.6336,1.4896
0.288,0.408,2.4,0.152,0.232,1.9,0.088,0.144,1.5714,0,0.056,0,0,0.056,0,0,0.056,0,0.2272,0.6288
0.168,-0.448,-0.27273,0.072,-0.544,-0.11688,0,-0.616,-0,0,-0.616,-0,0,-0.616,-0,0,-0.616,-0,-0.6448,1.5344
0.176,-0.352,-0.33333,0.056,-0.472,-0.10606,0,-0.528,-0,0,-0.528,-0,0,-0.528,-0,0,-0.528,-0,-0.6736,1.5712
0,-0.752,-0,0,-0.752,-0,0,-0.752,-0,0,-0.752,-0,0,-0.752,-0,0,-0.752,-0,-0.528,1.2448
0.128,0.2,1.7778,0.04,0.056,2.5,0,0.016,0,0,0.016,0,0,0.016,0,0,0.016,0,0.2048,0.5168
0,-0.16,-0,0,-0.16,-0,0,-0.16,-0,0,-0.16,-0,0,-0.16,-0,0,-0.16,-0,0.208,0.5616
0.136,0.224,1.5455,0.048,0.088,1.2,0,0.04,0,0,0.04,0,0,0.04,0,0,0.04,0,0.2528,0.6368
0.128,0.216,1.4545,0.048,0.088,1.2,0,0.04,0,0,0.04,0,0,0.04,0,0,0.04,0,0.2016,0.5168
0.16,-0.088,-0.64516,0.072,-0.176,-0.29032,0.008,-0.24,-0.032258,0,-0.248,-0,0,-0.248,-0,0,-0.248,-0,-0.6192,1.3584
0.264,0.144,-2.2,0.152,0.032,-1.2667,0.112,-0.008,-0.93333,0,-0.12,-0,0,-0.12,-0,0,-0.12,-0,-0.368,0.808
0.136,-0.144,-0.48571,0.064,-0.216,-0.22857,0.016,-0.264,-0.057143,0,-0.28,-0,0,-0.28,-0,0,-0.28,-0,-0.5328,1.2704
0,-0.16,-0,0,-0.16,-0,0,-0.16,-0,0,-0.16,-0,0,-0.16,-0,0,-0.16,-0,0.1728,0.3872
0.192,0.304,1.7143,0.088,0.152,1.375,0.032,0.056,1.3333,0,0.024,0,0,0.024,0,0,0.024,0,0.1952,0.504
0.184,0.304,1.5333,0.096,0.176,1.2,0.056,0.104,1.1667,0,0.048,0,0,0.048,0,0,0.048,0,0.24,0.6576
-0.032,0.104,-0.23529,0.232,0.312,2.9,0.064,0.112,1.3333,0,0.048,0,0,0.048,0,0,0.048,0,0.1632,0.3664
0.168,-0.008,-0.95455,0.08,-0.096,-0.45455,0.04,-0.136,-0.22727,0,-0.176,-0,0,-0.176,-0,0,-0.176,-0,-0.4608,0.9488
0.128,0.216,1.4545,0.064,0.112,1.3333,0.016,0.024,2,0,0.008,0,0,0.008,0,0,0.008,0,0.2384,0.6096
0.136,0.224,1.5455,0.064,0.112,1.3333,0,0.048,0,0,0.048,0,0,0.048,0,0,0.048,0,0.2416,0.576
0.144,0.232,1.6364,0.072,0.12,1.5,0.024,0.032,3,0,0.008,0,0,0.008,0,0,0.008,0,0.224,0.5792
0.136,-0.192,-0.41463,0.064,-0.264,-0.19512,0.032,-0.296,-0.097561,0,-0.328,-0,0,-0.328,-0,0,-0.328,-0,-0.584,1.3904
-0.216,0,-1,0.512,0.728,2.3704,0.32,0.464,2.2222,0.104,0.176,1.4444,0,0.072,0,0,0.072,0,0.2256,0.5376
0.128,0.208,1.6,0.064,0.104,1.6,0,0.04,0,0,0.04,0,0,0.04,0,0,0.04,0,0.2224,0.5696
0.168,-0.312,-0.35,0.088,-0.392,-0.18333,0.048,-0.432,-0.1,0,-0.48,-0,0,-0.48,-0,0,-0.48,-0,-0.4624,1.1344
0.136,0.24,1.3077,0.064,0.128,1,0.024,0.048,1,0,0.024,0,0,0.024,0,0,0.024,0,0.1856,0.4592
0.128,0.216,1.4545,0.056,0.096,1.4,0,0.04,0,0,0.04,0,0,0.04,0,0,0.04,0,0.2224,0.5744
0.128,0.216,1.4545,0.056,0.104,1.1667,0.016,0.024,2,0,0.008,0,0,0.008,0,0,0.008,0,0.2224,0.5696
0.152,0.24,1.7273,0.064,0.12,1.1429,0.024,0.048,1,0,0.024,0,0,0.024,0,0,0.024,0,0.1808,0.432
0.12,0.208,1.3636,0.064,0.112,1.3333,0.016,0.024,2,0,0.008,0,0,0.008,0,0,0.008,0,0.2224,0.5728
0.12,0.2,1.5,0.056,0.096,1.4,0,0.04,0,0,0.04,0,0,0.04,0,0,0.04,0,0.2176,0.568
0.12,0.2,1.5,0.056,0.096,1.4,0,0.04,0,0,0.04,0,0,0.04,0,0,0.04,0,0.2256,0.5536
0.24,0.336,2.5,0.192,0.288,2,0.144,0.24,1.5,0.08,0.128,1.6667,0,0.048,0,0,0.048,0,0.1248,0.2592
0.08,0.144,1.25,0,0.064,0,0,0.064,0,0,0.064,0,0,0.064,0,0,0.064,0,0.1712,0.448
0.104,-0.504,-0.17105,0.048,-0.56,-0.078947,0,-0.608,-0,0,-0.608,-0,0,-0.608,-0,0,-0.608,-0,-0.568,1.3552
0.104,0.176,1.4444,0.032,0.056,1.3333,0,0.024,0,0,0.024,0,0,0.024,0,0,0.024,0,0.2032,0.5616
0,-0.128,-0,0,-0.128,-0,0,-0.128,-0,0,-0.128,-0,0,-0.128,-0,0,-0.128,-0,0.1744,0.4624
0.072,0.128,1.2857,0,0.056,0,0,0.056,0,0,0.056,0,0,0.056,0,0,0.056,0,0.2336,0.5424
0.12,-0.096,-0.55556,0.056,-0.16,-0.25926,0.016,-0.2,-0.074074,0,-0.216,-0,0,-0.216,-0,0,-0.216,-0,-0.5776,1.3696
0.096,-0.008,-0.92308,0.04,-0.064,-0.38462,0,-0.104,-0,0,-0.104,-0,0,-0.104,-0,0,-0.104,-0,-0.5664,1.3488
0.064,0.12,1.1429,0,0.056,0,0,0.056,0,0,0.056,0,0,0.056,0,0,0.056,0,0.2112,0.5696
0.104,0.184,1.3,0.048,0.096,1,0,0.048,0,0,0.048,0,0,0.048,0,0,0.048,0,0.2144,0.536
0.12,0.216,1.25,0.064,0.128,1,0.032,0.064,1,0,0.032,0,0,0.032,0,0,0.032,0,0.1776,0.3552
0.112,0.208,1.1667,0.056,0.112,1,0.032,0.064,1,0,0.032,0,0,0.032,0,0,0.032,0,0.2096,0.5616
0.096,0.168,1.3333,0.04,0.064,1.6667,0,0.024,0,0,0.024,0,0,0.024,0,0,0.024,0,0.2208,0.5632
0.128,-0.064,-0.66667,0.064,-0.128,-0.33333,0.032,-0.16,-0.16667,0,-0.192,-0,0,-0.192,-0,0,-0.192,-0,-0.5664,1.3488
-0.104,-0.088,-6.5,0,0.016,0,0,0.016,0,0,0.016,0,0,0.016,0,0,0.016,0,0.1264,0.1376
0.08,0.16,1,0.032,0.064,1,0,0.032,0,0,0.032,0,0,0.032,0,0,0.032,0,0.2144,0.5584
0.088,0.16,1.2222,0.032,0.064,1,0,0.032,0,0,0.032,0,0,0.032,0,0,0.032,0,0.1744,0.4464
0.088,0.152,1.375,0.024,0.04,1.5,0,0.016,0,0,0.016,0,0,0.016,0,0,0.016,0,0.2128,0.576
0.08,0.136,1.4286,0,0.056,0,0,0.056,0,0,0.056,0,0,0.056,0,0,0.056,0,0.176,0.4496
0.08,0.144,1.25,0,0.064,0,0,0.064,0,0,0.064,0,0,0.064,0,0,0.064,0,0.1744,0.4416
0.128,0.216,1.4545,0.064,0.112,1.3333,0.032,0.048,2,0,0.016,0,0,0.016,0,0,0.016,0,0.2144,0.5616
0.096,0.176,1.2,0.032,0.064,1,0,0.032,0,0,0.032,0,0,0.032,0,0,0.032,0,0.2176,0.5504
0.16,-0.104,-0.60606,0.064,-0.2,-0.24242,0,-0.264,-0,0,-0.264,-0,0,-0.264,-0,0,-0.264,-0,-0.3312,0.792
0.128,0.208,1.6,0.064,0.112,1.3333,0.024,0.032,3,0,0.008,0,0,0.008,0,0,0.008,0,0.2176,0.5536
0.12,0.208,1.3636,0.064,0.112,1.3333,0.024,0.04,1.5,0,0.016,0,0,0.016,0,0,0.016,0,0.176,0.4432
0.136,0.224,1.5455,0.072,0.128,1.2857,0.04,0.072,1.25,0,0.032,0,0,0.032,0,0,0.032,0,0.2112,0.5536
0,-0.608,-0,0,-0.608,-0,0,-0.608,-0,0,-0.608,-0,0,-0.608,-0,0,-0.608,-0,0.1712,0.472
0,-0.544,-0,0,-0.544,-0,0,-0.544,-0,0,-0.544,-0,0,-0.544,-0,0,-0.544,-0,0.1728,0.352
0.136,0.224,1.5455,0,0.088,0,0,0.088,0,0,0.088,0,0,0.088,0,0,0.088,0,0.2096,0.4512
-0.264,-0.112,-1.7368,-0.264,-0.112,-1.7368,-0.264,-0.112,-1.7368,0.112,0.184,1.5556,0,0.072,0,0,0.072,0,0.1616,0.4096
0.12,0.2,1.5,0.056,0.096,1.4,0,0.04,0,0,0.04,0,0,0.04,0,0,0.04,0,0.1488,0.3168
0.232,0.312,2.9,0.152,0.208,2.7143,0.088,0.128,2.2,0,0.04,0,0,0.04,0,0,0.04,0,0.112,0.2544
0.248,0.04,-1.1923,0.248,0.04,-1.1923,0.36,0.152,-1.7308,0.184,-0.024,-0.88462,0,-0.208,-0,0,-0.208,-0,-0.3904,1.0016
0,-0.248,-0,0,-0.248,-0,0,-0.248,-0,0,-0.248,-0,0,-0.248,-0,0,-0.248,-0,-0.2848,0.752
-0.064,0.008,-0.88889,-0.064,0.008,-0.88889,-0.064,0.008,-0.88889,-0.064,0.008,-0.88889,0,0.072,0,0,0.072,0,0.288,0.2848
0.144,0.248,1.3846,0.088,0.192,0.84615,0.056,0.16,0.53846,0,0.104,0,0,0.104,0,0,0.104,0,-0.2464,0.7072
0.088,0.152,1.375,0,0.064,0,0,0.064,0,0,0.064,0,0,0.064,0,0,0.064,0,0.2432,0.448
0.152,0.32,0.90476,0.2,0.368,1.1905,0.192,0.36,1.1429,0.176,0.344,1.0476,0.096,0.176,1.2,0.032,0.048,2,0.2016,0.4336
0.208,0.304,2.1667,0.12,0.192,1.6667,0.08,0.136,1.4286,0,0.056,0,0,0.056,0,0,0.056,0,0.1872,0.5136
0.088,-0.16,-0.35484,0,-0.248,-0,0,-0.248,-0,0,-0.248,-0,0,-0.248,-0,0,-0.248,-0,-0.5488,1.2416
0,0.072,0,0,0.072,0,0,0.072,0,0,0.072,0,0,0.072,0,0,0.072,0,0.1632,0.5216
0.096,0.176,1.2,0.016,0.032,1,0,0.016,0,0,0.016,0,0,0.016,0,0,0.016,0,0.1856,0.552
0.216,-0.088,-0.71053,0.096,-0.208,-0.31579,0.072,-0.232,-0.23684,0,-0.304,-0,0,-0.304,-0,0,-0.304,-0,-0.5328,1.1616
0,-0.336,-0,0,-0.336,-0,0,-0.336,-0,0,-0.336,-0,0,-0.336,-0,0,-0.336,-0,-0.4144,0.976
0.112,0.192,1.4,0.072,0.128,1.2857,0.048,0.088,1.2,0,0.04,0,0,0.04,0,0,0.04,0,0.12,0.4272
0.192,0.288,2,0.112,0.184,1.5556,0.088,0.144,1.5714,0.016,0.016,Inf,0,0,NaN,0,0,NaN,0.1264,0.416
0,0.12,0,0,0.12,0,0,0.12,0,0,0.12,0,0,0.12,0,0,0.12,0,0.1568,0.4048
0.088,0.16,1.2222,0,0.072,0,0,0.072,0,0,0.072,0,0,0.072,0,0,0.072,0,0.1504,0.3712
0.096,0.152,1.7143,0,0.056,0,0,0.056,0,0,0.056,0,0,0.056,0,0,0.056,0,0.1712,0.536
0,0.328,0,0,0.328,0,0,0.328,0,0,0.328,0,0,0.328,0,0,0.328,0,0.1712,0.5488
0,-0.04,-0,0,-0.04,-0,0,-0.04,-0,0,-0.04,-0,0,-0.04,-0,0,-0.04,-0,0.1072,0.3216
0.296,0.384,3.3636,0.12,0.184,1.875,0.08,0.12,2,0,0.04,0,0,0.04,0,0,0.04,0,0.1552,0.52
0.168,0.248,2.1,0.088,0.136,1.8333,0.048,0.072,2,0,0.024,0,0,0.024,0,0,0.024,0,0.1376,0.4384
0.088,0.152,1.375,0.024,0.032,3,0,0.008,0,0,0.008,0,0,0.008,0,0,0.008,0,0.1616,0.5664
0.104,-0.512,-0.16883,0.04,-0.576,-0.064935,0,-0.616,-0,0,-0.616,-0,0,-0.616,-0,0,-0.616,-0,-0.4832,1.0432
0,-0.656,-0,0,-0.656,-0,0,-0.656,-0,0,-0.656,-0,0,-0.656,-0,0,-0.656,-0,-0.408,0.9696
0.112,0.184,1.5556,0.064,0.104,1.6,0.016,0.024,2,0,0.008,0,0,0.008,0,0,0.008,0,0.1104,0.3376
0,-0.152,-0,0,-0.152,-0,0,-0.152,-0,0,-0.152,-0,0,-0.152,-0,0,-0.152,-0,0.1296,0.3808
0.064,0.112,1.3333,0,0.048,0,0,0.048,0,0,0.048,0,0,0.048,0,0,0.048,0,0.1312,0.4464
0.032,0.056,1.3333,0,0.024,0,0,0.024,0,0,0.024,0,0,0.024,0,0,0.024,0,0.1552,0.5712
0.104,-0.52,-0.16667,0.056,-0.568,-0.089744,0,-0.624,-0,0,-0.624,-0,0,-0.624,-0,0,-0.624,-0,-0.4432,1.0176
0.072,-0.568,-0.1125,0,-0.64,-0,0,-0.64,-0,0,-0.64,-0,0,-0.64,-0,0,-0.64,-0,-0.4864,1.0976
0.088,0.16,1.2222,0.032,0.064,1,0,0.032,0,0,0.032,0,0,0.032,0,0,0.032,0,0.136,0.4832
0.104,-0.376,-0.21667,0.04,-0.44,-0.083333,0,-0.48,-0,0,-0.48,-0,0,-0.48,-0,0,-0.48,-0,-0.488,1.1136
0,-0.216,-0,0,-0.216,-0,0,-0.216,-0,0,-0.216,-0,0,-0.216,-0,0,-0.216,-0,0.1072,0.3568
0.04,0.064,1.6667,0,0.024,0,0,0.024,0,0,0.024,0,0,0.024,0,0,0.024,0,0.1792,0.5824
0.08,-0.344,-0.18868,0.016,-0.408,-0.037736,0,-0.424,-0,0,-0.424,-0,0,-0.424,-0,0,-0.424,-0,-0.176,0.4592
0.104,-0.28,-0.27083,0.04,-0.344,-0.10417,0,-0.384,-0,0,-0.384,-0,0,-0.384,-0,0,-0.384,-0,-0.608,1.376
0.088,-0.368,-0.19298,0.032,-0.424,-0.070175,0,-0.456,-0,0,-0.456,-0,0,-0.456,-0,0,-0.456,-0,-0.5904,1.2864
0,0.28,0,0,0.28,0,0,0.28,0,0,0.28,0,0,0.28,0,0,0.28,0,0.1632,0.5936
0,-0.448,-0,0,-0.448,-0,0,-0.448,-0,0,-0.448,-0,0,-0.448,-0,0,-0.448,-0,0.1328,0.5024
0.176,0.248,2.4444,0.072,0.112,1.8,0.032,0.048,2,0,0.016,0,0,0.016,0,0,0.016,0,0.1552,0.48
0,-0.224,-0,0,-0.224,-0,0,-0.224,-0,0,-0.224,-0,0,-0.224,-0,0,-0.224,-0,0.1056,0.3344
0.088,-0.176,-0.33333,0.008,-0.256,-0.030303,0,-0.264,-0,0,-0.264,-0,0,-0.264,-0,0,-0.264,-0,-0.5792,1.3152
0,-0.184,-0,0,-0.184,-0,0,-0.184,-0,0,-0.184,-0,0,-0.184,-0,0,-0.184,-0,0.1312,0.3968
0,-0.088,-0,0,-0.088,-0,0,-0.088,-0,0,-0.088,-0,0,-0.088,-0,0,-0.088,-0,0.1248,0.4688
0.12,0.2,1.5,0.072,0.12,1.5,0.032,0.048,2,0,0.016,0,0,0.016,0,0,0.016,0,0.1824,0.6096
0,0.12,0,0,0.12,0,0,0.12,0,0,0.12,0,0,0.12,0,0,0.12,0,0.1136,0.3616
0,-0.288,-0,0,-0.288,-0,0,-0.288,-0,0,-0.288,-0,0,-0.288,-0,0,-0.288,-0,0.1216,0.4288
0,-0.112,-0,0,-0.112,-0,0,-0.112,-0,0,-0.112,-0,0,-0.112,-0,0,-0.112,-0,0.1504,0.3248
0.12,0.192,1.6667,0.056,0.096,1.4,0,0.04,0,0,0.04,0,0,0.04,0,0,0.04,0,0.1328,0.4592
0.096,0.152,1.7143,0.008,0.008,Inf,0,0,NaN,0,0,NaN,0,0,NaN,0,0,NaN,0.1408,0.5696
0,0.184,0,0,0.184,0,0,0.184,0,0,0.184,0,0,0.184,0,0,0.184,0,0.1632,0.536
0.152,0.04,-1.3571,0.064,-0.048,-0.57143,0,-0.112,-0,0,-0.112,-0,0,-0.112,-0,0,-0.112,-0,-0.5328,1.2208
0.12,0.216,1.25,0.056,0.112,1,0,0.056,0,0,0.056,0,0,0.056,0,0,0.056,0,0.1488,0.3968
0.104,0.224,0.86667,0.04,0.08,1,0,0.04,0,0,0.04,0,0,0.04,0,0,0.04,0,0.256,0.6016
0.104,0.224,0.86667,0.04,0.08,1,0,0.04,0,0,0.04,0,0,0.04,0,0,0.04,0,0.256,0.6016
0,-0.136,-0,0,-0.136,-0,0,-0.136,-0,0,-0.136,-0,0,-0.136,-0,0,-0.136,-0,0.1472,0.3072
0.128,0.248,1.0667,0.08,0.152,1.1111,0.04,0.064,1.6667,0,0.024,0,0,0.024,0,0,0.024,0,0.2272,0.5792
0.112,0.2,1.2727,0.056,0.112,1,0,0.056,0,0,0.056,0,0,0.056,0,0,0.056,0,0.1488,0.4832
0,-0.256,-0,0,-0.256,-0,0,-0.256,-0,0,-0.256,-0,0,-0.256,-0,0,-0.256,-0,-0.2224,0.5232
0.12,0.176,2.1429,0.064,0.104,1.6,0.024,0.032,3,0,0.008,0,0,0.008,0,0,0.008,0,0.1184,0.4496
0.12,0.176,2.1429,0.064,0.104,1.6,0.024,0.032,3,0,0.008,0,0,0.008,0,0,0.008,0,0.1184,0.4496
0.096,0.144,2,0,0.048,0,0,0.048,0,0,0.048,0,0,0.048,0,0,0.048,0,0.1552,0.5408
0.08,0.12,2,0,0.04,0,0,0.04,0,0,0.04,0,0,0.04,0,0,0.04,0,0.1536,0.2832
-0.064,0.128,-0.33333,0.176,0.288,1.5714,0.096,0.176,1.2,0,0.08,0,0,0.08,0,0,0.08,0,0.1952,0.5792
0,-0.24,-0,0,-0.24,-0,0,-0.24,-0,0,-0.24,-0,0,-0.24,-0,0,-0.24,-0,-0.2752,0.6656
0,-0.296,-0,0,-0.296,-0,0,-0.296,-0,0,-0.296,-0,0,-0.296,-0,0,-0.296,-0,-0.2464,0.6912
0.408,0.464,7.2857,0.248,0.304,4.4286,0.176,0.232,3.1429,0.12,0.176,2.1429,0.072,0.128,1.2857,0,0.056,0,0.1104,0.3616
0.112,0.192,1.4,0.056,0.096,1.4,0,0.04,0,0,0.04,0,0,0.04,0,0,0.04,0,0.2032,0.5344
0.088,0.168,1.1,0,0.08,0,0,0.08,0,0,0.08,0,0,0.08,0,0,0.08,0,0.2064,0.488
0.096,0.176,1.2,0.04,0.072,1.25,0,0.032,0,0,0.032,0,0,0.032,0,0,0.032,0,0.1584,0.4368
0.136,0.232,1.4167,0.088,0.152,1.375,0.048,0.08,1.5,0,0.032,0,0,0.032,0,0,0.032,0,0.1488,0.4352
0,-0.16,-0,0,-0.16,-0,0,-0.16,-0,0,-0.16,-0,0,-0.16,-0,0,-0.16,-0,-0.3088,0.8288
0.168,0.048,-1.4,0.096,-0.024,-0.8,0.072,-0.048,-0.6,0,-0.12,-0,0,-0.12,-0,0,-0.12,-0,-0.2352,0.6192
0.344,0.448,3.3077,0.216,0.296,2.7,0.104,0.176,1.4444,0,0.072,0,0,0.072,0,0,0.072,0,0.1136,0.352
0.224,0.168,-4,0.104,0.048,-1.8571,0.056,0,-1,0,-0.056,-0,0,-0.056,-0,0,-0.056,-0,-0.4576,1.0544
0.288,0.2,-3.2727,0.136,0.048,-1.5455,0.088,0,-1,0,-0.088,-0,0,-0.088,-0,0,-0.088,-0,-0.4672,1.048
0.184,0.256,2.5556,0.08,0.136,1.4286,0.048,0.088,1.2,0,0.04,0,0,0.04,0,0,0.04,0,0.1008,0.2496
1.064,0.872,-5.5417,0.312,0.12,-1.625,0.232,0.04,-1.2083,0.072,-0.12,-0.375,0,-0.192,-0,0,-0.192,-0,-0.4624,1.0608
0.224,0.296,3.1111,0.08,0.128,1.6667,0.048,0.08,1.5,0,0.032,0,0,0.032,0,0,0.032,0,0.1152,0.3328
0.104,0.184,1.3,0.064,0.12,1.1429,0.04,0.072,1.25,0,0.032,0,0,0.032,0,0,0.032,0,0.1488,0.4224
0.104,-0.096,-0.52,0.056,-0.144,-0.28,0.024,-0.176,-0.12,0,-0.2,-0,0,-0.2,-0,0,-0.2,-0,-0.4,0.9376
0.088,0.144,1.5714,0.056,0.096,1.4,0.032,0.056,1.3333,0,0.024,0,0,0.024,0,0,0.024,0,0.1376,0.3744
0.216,0.304,2.4545,0.088,0.152,1.375,0.064,0.112,1.3333,0,0.048,0,0,0.048,0,0,0.048,0,0.1472,0.4032
-0.008,0.072,-0.1,0.072,0.12,1.5,0.024,0.04,1.5,0,0.016,0,0,0.016,0,0,0.016,0,0.1232,0.3248
0.096,0.168,1.3333,0.056,0.104,1.1667,0.032,0.056,1.3333,0,0.024,0,0,0.024,0,0,0.024,0,0.1456,0.408
0.208,0.296,2.3636,0.088,0.152,1.375,0.064,0.112,1.3333,0,0.048,0,0,0.048,0,0,0.048,0,0.1248,0.3328
0.368,0.488,3.0667,0.192,0.272,2.4,0.096,0.168,1.3333,0,0.072,0,0,0.072,0,0,0.072,0,0.144,0.384
0.064,0.112,1.3333,0,0.048,0,0,0.048,0,0,0.048,0,0,0.048,0,0,0.048,0,0.0944,0.248
0.072,0.128,1.2857,0.024,0.048,1,0,0.024,0,0,0.024,0,0,0.024,0,0,0.024,0,0.1456,0.4256
0.264,0.36,2.75,0.104,0.168,1.625,0.08,0.136,1.4286,0,0.056,0,0,0.056,0,0,0.056,0,0.1376,0.3824
0.144,0.056,-1.6364,0.384,0.296,-4.3636,0.272,0.184,-3.0909,0.096,0.008,-1.0909,0,-0.088,-0,0,-0.088,-0,-0.3648,0.896
0.136,0.216,1.7,0.096,0.152,1.7143,0.072,0.112,1.8,0,0.04,0,0,0.04,0,0,0.04,0,0.1504,0.4128
-0.304,-0.16,-2.1111,-0.304,-0.16,-2.1111,-0.304,-0.16,-2.1111,-0.304,-0.16,-2.1111,0.104,0.168,1.625,0,0.064,0,0.1456,0.4352
0.216,-0.2,-0.51923,0.088,-0.328,-0.21154,0.064,-0.352,-0.15385,0,-0.416,-0,0,-0.416,-0,0,-0.416,-0,-0.4368,1.0352
0.272,-0.2,-0.57627,0.112,-0.36,-0.23729,0.088,-0.384,-0.18644,0,-0.472,-0,0,-0.472,-0,0,-0.472,-0,-0.4448,0.9168
0.08,-0.384,-0.17241,0.024,-0.44,-0.051724,0,-0.464,-0,0,-0.464,-0,0,-0.464,-0,0,-0.464,-0,-0.4304,1.0032
0.056,0.096,1.4,0,0.04,0,0,0.04,0,0,0.04,0,0,0.04,0,0,0.04,0,0.1232,0.3616
0.112,0.176,1.75,0.072,0.112,1.8,0.04,0.064,1.6667,0,0.024,0,0,0.024,0,0,0.024,0,0.144,0.44
0.072,0.112,1.8,0,0.04,0,0,0.04,0,0,0.04,0,0,0.04,0,0,0.04,0,0.1472,0.4176
0,-0.032,-0,0,-0.032,-0,0,-0.032,-0,0,-0.032,-0,0,-0.032,-0,0,-0.032,-0,0.1408,0.3616
0.088,0.176,1,0.032,0.064,1,0,0.032,0,0,0.032,0,0,0.032,0,0,0.032,0,0.1744,0.4672
0.312,0.136,-1.7727,0.152,-0.024,-0.86364,0.096,-0.08,-0.54545,0,-0.176,-0,0,-0.176,-0,0,-0.176,-0,-0.4176,0.9216
0.104,-0.104,-0.5,0.024,-0.184,-0.11538,0,-0.208,-0,0,-0.208,-0,0,-0.208,-0,0,-0.208,-0,-0.4608,1.0672
0,-0.152,-0,0,-0.152,-0,0,-0.152,-0,0,-0.152,-0,0,-0.152,-0,0,-0.152,-0,-0.3776,0.9248
-0.072,-0.152,0.9,-0.072,-0.152,0.9,0.32,0.24,-4,0.056,-0.024,-0.7,0,-0.08,-0,0,-0.08,-0,-0.3536,0.9216
0.088,0.168,1.1,0.04,0.08,1,0,0.04,0,0,0.04,0,0,0.04,0,0,0.04,0,0.168,0.3744
0.384,-0.128,-0.75,0.216,-0.296,-0.42188,0.112,-0.4,-0.21875,0.016,-0.496,-0.03125,0,-0.512,-0,0,-0.512,-0,-0.4272,1.016
0.352,-0.088,-0.8,0.2,-0.24,-0.45455,0.096,-0.344,-0.21818,0,-0.44,-0,0,-0.44,-0,0,-0.44,-0,-0.4208,1.0096
0.304,0.424,2.5333,0.152,0.24,1.7273,0.088,0.168,1.1,0,0.08,0,0,0.08,0,0,0.08,0,0.1616,0.424
0.096,0.08,-6,0.28,0.264,-17.5,0.152,0.136,-9.5,0.048,0.032,-3,0,-0.016,-0,0,-0.016,-0,-0.4368,1.024
0,0.112,0,0,0.112,0,0,0.112,0,0,0.112,0,0,0.112,0,0,0.112,0,0.1392,0.432
0.304,0.416,2.7143,0.12,0.208,1.3636,0.08,0.152,1.1111,0,0.072,0,0,0.072,0,0,0.072,0,0.1504,0.4
0.224,0.32,2.3333,0.104,0.176,1.4444,0.08,0.136,1.4286,0,0.056,0,0,0.056,0,0,0.056,0,0.1504,0.4032
0.12,0.2,1.5,0.072,0.128,1.2857,0.04,0.072,1.25,0,0.032,0,0,0.032,0,0,0.032,0,0.1504,0.4112
0.192,0.272,2.4,0.056,0.088,1.75,0,0.032,0,0,0.032,0,0,0.032,0,0,0.032,0,0.1248,0.336
0,-0.112,-0,0,-0.112,-0,0,-0.112,-0,0,-0.112,-0,0,-0.112,-0,0,-0.112,-0,0.0832,0.1824
0.456,0.32,-3.3529,0.264,0.128,-1.9412,0.176,0.04,-1.2941,0.032,-0.104,-0.23529,0,-0.136,-0,0,-0.136,-0,-0.4864,1.136
0.328,0.2,-2.5625,0.208,0.08,-1.625,0.12,-0.008,-0.9375,0,-0.128,-0,0,-0.128,-0,0,-0.128,-0,-0.4512,1.0816
0.336,0.248,-3.8182,0.192,0.104,-2.1818,0.096,0.008,-1.0909,0,-0.088,-0,0,-0.088,-0,0,-0.088,-0,-0.472,1.1264
0.144,0.24,1.5,0.072,0.136,1.125,0.04,0.064,1.6667,0,0.024,0,0,0.024,0,0,0.024,0,0.1824,0.4704
0.312,-0.024,-0.92857,0.176,-0.16,-0.52381,0.088,-0.248,-0.2619,0,-0.336,-0,0,-0.336,-0,0,-0.336,-0,-0.4752,1.1328
0.288,0.056,-1.2414,0.12,-0.112,-0.51724,0.08,-0.152,-0.34483,0,-0.232,-0,0,-0.232,-0,0,-0.232,-0,-0.4176,1.0048
0.32,-0.032,-0.90909,0.176,-0.176,-0.5,0.088,-0.264,-0.25,0,-0.352,-0,0,-0.352,-0,0,-0.352,-0,-0.4816,1.1504
0.088,0.168,1.1,0.032,0.064,1,0,0.032,0,0,0.032,0,0,0.032,0,0,0.032,0,0.1824,0.4896
0.128,0.224,1.3333,0.072,0.136,1.125,0.04,0.08,1,0,0.04,0,0,0.04,0,0,0.04,0,0.1824,0.4736
0.104,0.192,1.1818,0.056,0.112,1,0.024,0.04,1.5,0,0.016,0,0,0.016,0,0,0.016,0,0.1808,0.4848
0.104,0.192,1.1818,0.056,0.112,1,0,0.056,0,0,0.056,0,0,0.056,0,0,0.056,0,0.1856,0.4752
0.072,-0.232,-0.23684,0.024,-0.28,-0.078947,0,-0.304,-0,0,-0.304,-0,0,-0.304,-0,0,-0.304,-0,-0.4576,1.1072
0.088,0.176,1,0.024,0.04,1.5,0,0.016,0,0,0.016,0,0,0.016,0,0,0.016,0,0.1552,0.408
0.104,-0.432,-0.19403,0.048,-0.488,-0.089552,0,-0.536,-0,0,-0.536,-0,0,-0.536,-0,0,-0.536,-0,-0.4992,1.1904
0.104,0.192,1.1818,0.048,0.096,1,0,0.048,0,0,0.048,0,0,0.048,0,0,0.048,0,0.1936,0.4928
0.072,-0.08,-0.47368,0,-0.152,-0,0,-0.152,-0,0,-0.152,-0,0,-0.152,-0,0,-0.152,-0,-0.464,1.12
0.088,-0.152,-0.36667,0.088,-0.152,-0.36667,0.088,-0.152,-0.36667,0.32,0.08,-1.3333,0.072,-0.168,-0.3,0,-0.24,-0,-0.504,1.2048
0.088,-0.064,-0.57895,0.032,-0.12,-0.21053,0,-0.152,-0,0,-0.152,-0,0,-0.152,-0,0,-0.152,-0,-0.5168,1.2288
0.12,-0.04,-0.75,0.056,-0.104,-0.35,0.024,-0.136,-0.15,0,-0.16,-0,0,-0.16,-0,0,-0.16,-0,-0.4912,1.176
0.192,0.312,1.6,0.096,0.184,1.0909,0.064,0.136,0.88889,0,0.072,0,0,0.072,0,0,0.072,0,0.2,0.4976
0.024,0.04,1.5,0,0.016,0,0,0.016,0,0,0.016,0,0,0.016,0,0,0.016,0,0.16,0.3808
0.416,0.288,-3.25,0.28,0.152,-2.1875,0.224,0.096,-1.75,0.08,-0.048,-0.625,0,-0.128,-0,0,-0.128,-0,-0.3904,1.0096
0.032,0.064,1,0,0.032,0,0,0.032,0,0,0.032,0,0,0.032,0,0,0.032,0,0.1632,0.3712
0.072,0.128,1.2857,0,0.056,0,0,0.056,0,0,0.056,0,0,0.056,0,0,0.056,0,0.1552,0.4432
0.104,0.2,1.0833,0.048,0.088,1.2,0,0.04,0,0,0.04,0,0,0.04,0,0,0.04,0,0.1648,0.4384
0,-0.376,-0,0,-0.376,-0,0,-0.376,-0,0,-0.376,-0,0,-0.376,-0,0,-0.376,-0,-0.4352,1.112
0.264,-0.264,-0.5,0.104,-0.424,-0.19697,0.072,-0.456,-0.13636,0,-0.528,-0,0,-0.528,-0,0,-0.528,-0,-0.4976,1.192
0.064,-0.4,-0.13793,0,-0.464,-0,0,-0.464,-0,0,-0.464,-0,0,-0.464,-0,0,-0.464,-0,-0.5536,1.3136
0.104,0.192,1.1818,0.056,0.096,1.4,0,0.04,0,0,0.04,0,0,0.04,0,0,0.04,0,0.192,0.5152
0.104,0.2,1.0833,0.04,0.088,0.83333,0,0.048,0,0,0.048,0,0,0.048,0,0,0.048,0,0.2032,0.5248
0.176,0.288,1.5714,0.08,0.152,1.1111,0.048,0.088,1.2,0,0.04,0,0,0.04,0,0,0.04,0,0.2096,0.5712
0,-0.144,-0,0,-0.144,-0,0,-0.144,-0,0,-0.144,-0,0,-0.144,-0,0,-0.144,-0,0.1664,0.3328
0,-0.192,-0,0,-0.192,-0,0,-0.192,-0,0,-0.192,-0,0,-0.192,-0,0,-0.192,-0,0.192,0.5312
0.128,0.248,1.0667,0.064,0.144,0.8,0.032,0.072,0.8,0,0.04,0,0,0.04,0,0,0.04,0,0.208,0.5552
0.096,0.2,0.92308,0.04,0.096,0.71429,0,0.056,0,0,0.056,0,0,0.056,0,0,0.056,0,0.2112,0.5808
0.112,0.216,1.0769,0.056,0.112,1,0,0.056,0,0,0.056,0,0,0.056,0,0,0.056,0,0.176,0.4704
0.096,0.208,0.85714,0.04,0.096,0.71429,0,0.056,0,0,0.056,0,0,0.056,0,0,0.056,0,0.184,0.4832
0.088,-0.08,-0.52381,0.024,-0.144,-0.14286,0,-0.168,-0,0,-0.168,-0,0,-0.168,-0,0,-0.168,-0,-0.5952,1.4032
0.112,0.224,1,0.056,0.112,1,0,0.056,0,0,0.056,0,0,0.056,0,0,0.056,0,0.1696,0.4656
0.08,0.168,0.90909,0.016,0.024,2,0,0.008,0,0,0.008,0,0,0.008,0,0,0.008,0,0.2096,0.56
0.096,-0.264,-0.26667,0.04,-0.32,-0.11111,0,-0.36,-0,0,-0.36,-0,0,-0.36,-0,0,-0.36,-0,-0.5744,1.36
0.136,0.256,1.1333,0.056,0.128,0.77778,0,0.072,0,0,0.072,0,0,0.072,0,0,0.072,0,0.1728,0.4528
0.56,0.584,23.333,0.176,0.2,7.3333,0.112,0.136,4.6667,0,0.024,0,0,0.024,0,0,0.024,0,0.1328,0.4592
0.08,0.152,1.1111,0.008,0.008,Inf,0,0,NaN,0,0,NaN,0,0,NaN,0,0,NaN,0.168,0.5024
0.088,0.176,1,0.032,0.064,1,0,0.032,0,0,0.032,0,0,0.032,0,0,0.032,0,0.1696,0.4208
0.104,-0.016,-0.86667,0.056,-0.064,-0.46667,0,-0.12,-0,0,-0.12,-0,0,-0.12,-0,0,-0.12,-0,-0.528,1.2624
0.12,0.232,1.0714,0.056,0.112,1,0,0.056,0,0,0.056,0,0,0.056,0,0,0.056,0,0.2064,0.544
0.088,0.192,0.84615,0.032,0.072,0.8,0,0.04,0,0,0.04,0,0,0.04,0,0,0.04,0,0.2032,0.5056
0.128,-0.056,-0.69565,0.056,-0.128,-0.30435,0.024,-0.16,-0.13043,0,-0.184,-0,0,-0.184,-0,0,-0.184,-0,-0.4544,1.0096
0.216,0.344,1.6875,0.088,0.192,0.84615,0.064,0.144,0.8,0,0.08,0,0,0.08,0,0,0.08,0,0.2032,0.496
0.064,0.144,0.8,0,0.08,0,0,0.08,0,0,0.08,0,0,0.08,0,0,0.08,0,0.208,0.5616
0.256,0.28,10.667,0.328,0.352,13.667,0.208,0.232,8.6667,0.096,0.12,4,0,0.024,0,0,0.024,0,0.1696,0.528
0,0,NaN,0,0,NaN,0,0,NaN,0,0,NaN,0,0,NaN,0,0,NaN,-0.4368,1.0416
0.312,0.456,2.1667,0.152,0.272,1.2667,0.08,0.176,0.83333,0,0.096,0,0,0.096,0,0,0.096,0,0.2096,0.4704
0.36,0.128,-1.5517,0.192,-0.04,-0.82759,0.096,-0.136,-0.41379,0,-0.232,-0,0,-0.232,-0,0,-0.232,-0,-0.544,1.2928
0.136,-0.104,-0.56667,0.064,-0.176,-0.26667,0.024,-0.216,-0.1,0,-0.24,-0,0,-0.24,-0,0,-0.24,-0,-0.4336,0.9792
0.136,-0.064,-0.68,0.072,-0.128,-0.36,0.032,-0.168,-0.16,0,-0.2,-0,0,-0.2,-0,0,-0.2,-0,-0.472,1.1264
0.104,-0.112,-0.48148,0.056,-0.16,-0.25926,0,-0.216,-0,0,-0.216,-0,0,-0.216,-0,0,-0.216,-0,-0.3216,0.7552
0.072,0.136,1.125,0.016,0.024,2,0,0.008,0,0,0.008,0,0,0.008,0,0,0.008,0,0.1536,0.3824
0.152,0.256,1.4615,0.096,0.176,1.2,0.072,0.136,1.125,0,0.064,0,0,0.064,0,0,0.064,0,0.176,0.4624
0.08,-0.032,-0.71429,0.016,-0.096,-0.14286,0,-0.112,-0,0,-0.112,-0,0,-0.112,-0,0,-0.112,-0,-0.456,1.0912
0.072,0.144,1,0,0.072,0,0,0.072,0,0,0.072,0,0,0.072,0,0,0.072,0,0.112,0.3024
0.096,0.184,1.0909,0.056,0.104,1.1667,0,0.048,0,0,0.048,0,0,0.048,0,0,0.048,0,0.1808,0.4896
0.08,0.152,1.1111,0.032,0.056,1.3333,0,0.024,0,0,0.024,0,0,0.024,0,0,0.024,0,0.176,0.4416
0.096,0.168,1.3333,0.04,0.064,1.6667,0,0.024,0,0,0.024,0,0,0.024,0,0,0.024,0,0.1776,0.488
0.072,0.112,1.8,0.024,0.032,3,0,0.008,0,0,0.008,0,0,0.008,0,0,0.008,0,0.1392,0.3616
0.072,0.112,1.8,0.024,0.032,3,0,0.008,0,0,0.008,0,0,0.008,0,0,0.008,0,0.1392,0.3616
0.152,0.232,1.9,0.088,0.144,1.5714,0.064,0.104,1.6,0,0.04,0,0,0.04,0,0,0.04,0,0.1056,0.1616
0.112,0.192,1.4,0.056,0.096,1.4,0,0.04,0,0,0.04,0,0,0.04,0,0,0.04,0,0.1856,0.3952
0.12,-0.304,-0.28302,0.064,-0.36,-0.15094,0.008,-0.416,-0.018868,0,-0.424,-0,0,-0.424,-0,0,-0.424,-0,-0.2224,0.4816
0,-0.304,-0,0,-0.304,-0,0,-0.304,-0,0,-0.304,-0,0,-0.304,-0,0,-0.304,-0,0.1664,0.2384
0,-0.368,-0,0,-0.368,-0,0,-0.368,-0,0,-0.368,-0,0,-0.368,-0,0,-0.368,-0,0.096,0.152
0,-0.36,-0,0,-0.36,-0,0,-0.36,-0,0,-0.36,-0,0,-0.36,-0,0,-0.36,-0,-0.3712,0.8928
0.12,0.176,2.1429,0.072,0.104,2.25,0.04,0.056,2.5,0,0.016,0,0,0.016,0,0,0.016,0,0.1456,0.4096
0,-0.232,-0,0,-0.232,-0,0,-0.232,-0,0,-0.232,-0,0,-0.232,-0,0,-0.232,-0,-0.3088,0.7248
0.376,0.088,-1.3056,0.152,-0.136,-0.52778,0.12,-0.168,-0.41667,0.032,-0.256,-0.11111,0,-0.288,-0,0,-0.288,-0,-0.1824,0.4352
0.192,-0.12,-0.61538,0.128,-0.184,-0.41026,0.104,-0.208,-0.33333,0.032,-0.28,-0.10256,0,-0.312,-0,0,-0.312,-0,-0.2,0.4592
0.936,0.648,-3.25,0.184,-0.104,-0.63889,0.136,-0.152,-0.47222,0.056,-0.232,-0.19444,0,-0.288,-0,0,-0.288,-0,-0.408,0.9584
0,-0.232,-0,0,-0.232,-0,0,-0.232,-0,0,-0.232,-0,0,-0.232,-0,0,-0.232,-0,0.1024,0.1712
0,-0.144,-0,0,-0.144,-0,0,-0.144,-0,0,-0.144,-0,0,-0.144,-0,0,-0.144,-0,0.0912,0.1792
-0.168,-0.024,-1.1667,0,0.144,0,0,0.144,0,0,0.144,0,0,0.144,0,0,0.144,0,0.1296,0.2976
0.136,0.216,1.7,0.088,0.144,1.5714,0.056,0.096,1.4,0,0.04,0,0,0.04,0,0,0.04,0,0.1312,0.312
0.112,-0.12,-0.48276,0.064,-0.168,-0.27586,0.016,-0.216,-0.068966,0,-0.232,-0,0,-0.232,-0,0,-0.232,-0,-0.1808,0.4368
0.088,0.144,1.5714,0.048,0.08,1.5,0,0.032,0,0,0.032,0,0,0.032,0,0,0.032,0,0.1072,0.2144
0.112,0.184,1.5556,0.048,0.08,1.5,0,0.032,0,0,0.032,0,0,0.032,0,0,0.032,0,0.192,0.5328
0.224,-0.016,-0.93333,0.12,-0.12,-0.5,0.08,-0.16,-0.33333,0,-0.24,-0,0,-0.24,-0,0,-0.24,-0,-0.5344,1.2416
0.136,-0.136,-0.5,0.056,-0.216,-0.20588,0,-0.272,-0,0,-0.272,-0,0,-0.272,-0,0,-0.272,-0,-0.392,0.92
0.184,-0.072,-0.71875,0.08,-0.176,-0.3125,0.048,-0.208,-0.1875,0,-0.256,-0,0,-0.256,-0,0,-0.256,-0,-0.5088,1.2384
0.184,0.112,-2.5556,0.08,0.008,-1.1111,0.048,-0.024,-0.66667,0,-0.072,-0,0,-0.072,-0,0,-0.072,-0,-0.4576,1.1888
0.08,-0.104,-0.43478,0,-0.184,-0,0,-0.184,-0,0,-0.184,-0,0,-0.184,-0,0,-0.184,-0,-0.5536,1.3824
0.12,0.2,1.5,0.064,0.112,1.3333,0.016,0.016,Inf,0,0,NaN,0,0,NaN,0,0,NaN,0.1472,0.4224
0.288,0.16,-2.25,0.12,-0.008,-0.9375,0.072,-0.056,-0.5625,0,-0.128,-0,0,-0.128,-0,0,-0.128,-0,-0.4384,1.1552
0.096,0.168,1.3333,0.016,0.024,2,0,0.008,0,0,0.008,0,0,0.008,0,0,0.008,0,0.1648,0.6416
0.384,-0.36,-0.51613,0.16,-0.584,-0.21505,0.12,-0.624,-0.16129,0,-0.744,-0,0,-0.744,-0,0,-0.744,-0,-0.528,1.1888
-0.664,-0.592,-9.2222,0.072,0.12,1.5,0.04,0.064,1.6667,0,0.024,0,0,0.024,0,0,0.024,0,0.1472,0.256
0.112,0.184,1.5556,0.072,0.12,1.5,0.048,0.08,1.5,0,0.032,0,0,0.032,0,0,0.032,0,0.1392,0.456
0.096,0.168,1.3333,0.04,0.072,1.25,0,0.032,0,0,0.032,0,0,0.032,0,0,0.032,0,0.1792,0.5568
0,0.008,0,0,0.008,0,0,0.008,0,0,0.008,0,0,0.008,0,0,0.008,0,0.1488,0.496
0.088,-0.144,-0.37931,0.04,-0.192,-0.17241,0,-0.232,-0,0,-0.232,-0,0,-0.232,-0,0,-0.232,-0,-0.5344,1.1616
0.104,0.168,1.625,0.056,0.096,1.4,0.024,0.032,3,0,0.008,0,0,0.008,0,0,0.008,0,0.128,0.272
0.064,0.112,1.3333,0,0.048,0,0,0.048,0,0,0.048,0,0,0.048,0,0,0.048,0,0.144,0.4112
0.112,0.184,1.5556,0.072,0.128,1.2857,0.048,0.088,1.2,0,0.04,0,0,0.04,0,0,0.04,0,0.12,0.3728
0.088,0.136,1.8333,0.048,0.08,1.5,0,0.032,0,0,0.032,0,0,0.032,0,0,0.032,0,0.1152,0.3136
0.072,0.136,1.125,0.024,0.048,1,0,0.024,0,0,0.024,0,0,0.024,0,0,0.024,0,0.1552,0.4928
0.08,0.136,1.4286,0.048,0.08,1.5,0,0.032,0,0,0.032,0,0,0.032,0,0,0.032,0,0.1408,0.4192
0.104,-0.136,-0.43333,0.064,-0.176,-0.26667,0.032,-0.208,-0.13333,0,-0.24,-0,0,-0.24,-0,0,-0.24,-0,-0.3984,0.9248
0.104,0.168,1.625,0.056,0.104,1.1667,0.024,0.048,1,0,0.024,0,0,0.024,0,0,0.024,0,0.136,0.44
0.072,0.12,1.5,0.024,0.04,1.5,0,0.016,0,0,0.016,0,0,0.016,0,0,0.016,0,0.1024,0.2656
0.048,-0.08,-0.375,0,-0.128,-0,0,-0.128,-0,0,-0.128,-0,0,-0.128,-0,0,-0.128,-0,-0.3344,0.776
0.36,0.32,-9,0.112,0.072,-2.8,0.088,0.048,-2.2,0.016,-0.024,-0.4,0,-0.04,-0,0,-0.04,-0,-0.4224,0.8752
0.096,-0.024,-0.8,0.056,-0.064,-0.46667,0.04,-0.08,-0.33333,0,-0.12,-0,0,-0.12,-0,0,-0.12,-0,-0.352,0.872
0.112,0.072,-2.8,0.048,0.008,-1.2,0,-0.04,-0,0,-0.04,-0,0,-0.04,-0,0,-0.04,-0,-0.5168,1.1888
0.112,0.072,-2.8,0.048,0.008,-1.2,0,-0.04,-0,0,-0.04,-0,0,-0.04,-0,0,-0.04,-0,-0.5168,1.1888
0.12,0.184,1.875,0.064,0.104,1.6,0,0.04,0,0,0.04,0,0,0.04,0,0,0.04,0,0.16,0.5152
0.112,0.168,2,0.04,0.056,2.5,0,0.016,0,0,0.016,0,0,0.016,0,0,0.016,0,0.1568,0.512
0,-0.4,-0,0,-0.4,-0,0,-0.4,-0,0,-0.4,-0,0,-0.4,-0,0,-0.4,-0,-0.1904,0.4736
0,-0.392,-0,0,-0.392,-0,0,-0.392,-0,0,-0.392,-0,0,-0.392,-0,0,-0.392,-0,0.08,0.136
0.12,-0.216,-0.35714,0.072,-0.264,-0.21429,0.048,-0.288,-0.14286,0,-0.336,-0,0,-0.336,-0,0,-0.336,-0,-0.1792,0.4352
0.128,-0.24,-0.34783,0.08,-0.288,-0.21739,0.048,-0.32,-0.13043,0,-0.368,-0,0,-0.368,-0,0,-0.368,-0,-0.1728,0.4592
0.112,-0.2,-0.35897,0.072,-0.24,-0.23077,0.04,-0.272,-0.12821,0,-0.312,-0,0,-0.312,-0,0,-0.312,-0,-0.1536,0.336
0.192,-0.192,-0.5,0.104,-0.28,-0.27083,0.08,-0.304,-0.20833,0.024,-0.36,-0.0625,0,-0.384,-0,0,-0.384,-0,-0.1472,0.3232
0,-0.384,-0,0,-0.384,-0,0,-0.384,-0,0,-0.384,-0,0,-0.384,-0,0,-0.384,-0,-0.1392,0.3696
0.08,-0.24,-0.25,0.04,-0.28,-0.125,0,-0.32,-0,0,-0.32,-0,0,-0.32,-0,0,-0.32,-0,-0.3648,0.8416
0.064,0.112,1.3333,0.032,0.056,1.3333,0,0.024,0,0,0.024,0,0,0.024,0,0,0.024,0,0.1392,0.4224
0.056,0.096,1.4,0.016,0.016,Inf,0,0,NaN,0,0,NaN,0,0,NaN,0,0,NaN,0.1312,0.4144
0,-0.008,-0,0,-0.008,-0,0,-0.008,-0,0,-0.008,-0,0,-0.008,-0,0,-0.008,-0,0.104,0.2592
0.128,0.2,1.7778,0.08,0.128,1.6667,0.048,0.08,1.5,0,0.032,0,0,0.032,0,0,0.032,0,0.1248,0.3424
0.12,-0.056,-0.68182,0.072,-0.104,-0.40909,0.048,-0.128,-0.27273,0,-0.176,-0,0,-0.176,-0,0,-0.176,-0,-0.4416,0.9632
0.136,0.208,1.8889,0.088,0.136,1.8333,0.056,0.096,1.4,0,0.04,0,0,0.04,0,0,0.04,0,0.0912,0.296
0.328,0.392,5.125,0.08,0.144,1.25,0,0.064,0,0,0.064,0,0,0.064,0,0,0.064,0,0.104,0.344
-0.032,0,-1,0.08,0.112,2.5,0,0.032,0,0,0.032,0,0,0.032,0,0,0.032,0,0.0944,0.2256
0.416,0.528,3.7143,0.144,0.224,1.8,0.104,0.168,1.625,0.032,0.056,1.3333,0,0.024,0,0,0.024,0,0.1264,0.384
0.024,0.12,0.25,0.128,0.2,1.7778,0.096,0.152,1.7143,0,0.056,0,0,0.056,0,0,0.056,0,0.0864,0.2384
0.168,0.008,-1.05,0.088,-0.072,-0.55,0.064,-0.096,-0.4,0,-0.16,-0,0,-0.16,-0,0,-0.16,-0,-0.4128,0.9552
0.392,0.248,-2.7222,0.128,-0.016,-0.88889,0.096,-0.048,-0.66667,0.04,-0.104,-0.27778,0,-0.144,-0,0,-0.144,-0,-0.2352,0.5632
0.4,0.496,4.1667,0.144,0.208,2.25,0.112,0.16,2.3333,0,0.048,0,0,0.048,0,0,0.048,0,0.1344,0.392
0.272,0.264,-34,0.112,0.104,-14,0.088,0.08,-11,0,-0.008,-0,0,-0.008,-0,0,-0.008,-0,-0.4,0.9456
0.04,-0.008,-0.83333,0.264,0.216,-5.5,0.128,0.08,-2.6667,0.056,0.008,-1.1667,0,-0.048,-0,0,-0.048,-0,-0.2384,0.6128
0.016,-0.048,-0.25,0.208,0.144,-3.25,0.128,0.064,-2,0.064,0,-1,0,-0.064,-0,0,-0.064,-0,-0.416,0.9648
-0.104,0.024,-0.8125,0.112,0.184,1.5556,0.08,0.136,1.4286,0.032,0.056,1.3333,0,0.024,0,0,0.024,0,0.0976,0.1648
0.344,0.344,Inf,0.16,0.16,Inf,0.12,0.12,Inf,0,0,NaN,0,0,NaN,0,0,NaN,0.1136,0.3696
0.32,0.28,-8,0.136,0.096,-3.4,0.104,0.064,-2.6,0,-0.04,-0,0,-0.04,-0,0,-0.04,-0,-0.3648,0.856
0,0.152,0,0,0.152,0,0,0.152,0,0,0.152,0,0,0.152,0,0,0.152,0,0.0736,0.2144
0,0.072,0,0,0.072,0,0,0.072,0,0,0.072,0,0,0.072,0,0,0.072,0,0.1104,0.3344
0,-0.032,-0,0,-0.032,-0,0,-0.032,-0,0,-0.032,-0,0,-0.032,-0,0,-0.032,-0,-0.3232,0.92
0,0.04,0,0,0.04,0,0,0.04,0,0,0.04,0,0,0.04,0,0,0.04,0,0.1392,0.2976
0.104,0.112,13,0.048,0.056,6,0,0.008,0,0,0.008,0,0,0.008,0,0,0.008,0,-0.32,0.7664
0.184,0.264,2.3,0.104,0.16,1.8571,0.08,0.12,2,0,0.04,0,0,0.04,0,0,0.04,0,0.1504,0.4576
0.088,0.12,2.75,0,0.032,0,0,0.032,0,0,0.032,0,0,0.032,0,0,0.032,0,0.1104,0.3504
0.12,0.192,1.6667,0.048,0.072,2,0,0.024,0,0,0.024,0,0,0.024,0,0,0.024,0,0.1552,0.4544
0.08,-0.216,-0.27027,0,-0.296,-0,0,-0.296,-0,0,-0.296,-0,0,-0.296,-0,0,-0.296,-0,-0.3168,0.7184
0.128,0.232,1.2308,0.08,0.152,1.1111,0.056,0.112,1,0,0.056,0,0,0.056,0,0,0.056,0,0.1696,0.4704
0.136,0.2,2.125,0.088,0.136,1.8333,0.048,0.072,2,0,0.024,0,0,0.024,0,0,0.024,0,0.1312,0.2864
0.208,0.304,2.1667,0.112,0.184,1.5556,0.088,0.152,1.375,0,0.064,0,0,0.064,0,0,0.064,0,0.1408,0.4112
0.12,0.176,2.1429,0.064,0.088,2.6667,0,0.024,0,0,0.024,0,0,0.024,0,0,0.024,0,0.1664,0.376
0.128,0.232,1.2308,0.08,0.16,1,0.048,0.096,1,0,0.048,0,0,0.048,0,0,0.048,0,0.144,0.3808
0.16,0.248,1.8182,0.096,0.16,1.5,0.072,0.12,1.5,0,0.048,0,0,0.048,0,0,0.048,0,0.1568,0.4176
0.048,0.08,1.5,0,0.032,0,0,0.032,0,0,0.032,0,0,0.032,0,0,0.032,0,0.152,0.4336
0.144,0.224,1.8,0.096,0.144,2,0.064,0.096,2,0,0.032,0,0,0.032,0,0,0.032,0,0.1328,0.2784
0.16,0.24,2,0.112,0.168,2,0.088,0.128,2.2,0,0.04,0,0,0.04,0,0,0.04,0,0.1488,0.4144
0.144,-0.232,-0.38298,0.096,-0.28,-0.25532,0.064,-0.312,-0.17021,0,-0.376,-0,0,-0.376,-0,0,-0.376,-0,-0.3168,0.7808
0.032,-0.376,-0.078431,0.032,-0.376,-0.078431,0.032,-0.376,-0.078431,0.376,-0.032,-0.92157,0.192,-0.216,-0.47059,0.144,-0.264,-0.35294,-0.3808,0.9888
0.112,0.168,2,0,0.056,0,0,0.056,0,0,0.056,0,0,0.056,0,0,0.056,0,0.1872,0.4512
0.12,0.208,1.3636,0.072,0.128,1.2857,0,0.056,0,0,0.056,0,0,0.056,0,0,0.056,0,0.1408,0.3872
0.096,-0.008,-0.92308,0.056,-0.048,-0.53846,0,-0.104,-0,0,-0.104,-0,0,-0.104,-0,0,-0.104,-0,-0.4896,1.1568
0.24,0.36,2,0.12,0.216,1.25,0.096,0.176,1.2,0,0.08,0,0,0.08,0,0,0.08,0,0.1776,0.4352
0.224,0.2,-9.3333,0.128,0.104,-5.3333,0.104,0.08,-4.3333,0,-0.024,-0,0,-0.024,-0,0,-0.024,-0,-0.3136,0.7504
0.136,0.28,0.94444,0.08,0.2,0.66667,0.056,0.16,0.53846,0,0.104,0,0,0.104,0,0,0.104,0,0.1952,0.48
0,0.376,0,0,0.376,0,0,0.376,0,0,0.376,0,0,0.376,0,0,0.376,0,0.1504,0.3664
0.136,0.216,1.7,0.096,0.152,1.7143,0.072,0.112,1.8,0,0.04,0,0,0.04,0,0,0.04,0,0.1536,0.4016
0.096,0.16,1.5,0.032,0.048,2,0,0.016,0,0,0.016,0,0,0.016,0,0,0.016,0,0.1504,0.4416
0.16,0.256,1.6667,0.104,0.176,1.4444,0.08,0.136,1.4286,0,0.056,0,0,0.056,0,0,0.056,0,0.16,0.4576
0.16,0.256,1.6667,0.112,0.184,1.5556,0.08,0.136,1.4286,0,0.056,0,0,0.056,0,0,0.056,0,0.1168,0.3088
0.248,-0.072,-0.775,0.128,-0.192,-0.4,0.104,-0.216,-0.325,0,-0.32,-0,0,-0.32,-0,0,-0.32,-0,-0.448,1.0448
0.152,0.232,1.9,0.104,0.16,1.8571,0.072,0.112,1.8,0,0.04,0,0,0.04,0,0,0.04,0,0.1552,0.4432
0.168,-0.208,-0.44681,0.12,-0.256,-0.31915,0.096,-0.28,-0.25532,0,-0.376,-0,0,-0.376,-0,0,-0.376,-0,-0.4144,0.9776
0.136,0.232,1.4167,0.088,0.16,1.2222,0.056,0.096,1.4,0,0.04,0,0,0.04,0,0,0.04,0,0.136,0.3552
0.192,0.32,1.5,0.104,0.2,1.0833,0.072,0.152,0.9,0,0.08,0,0,0.08,0,0,0.08,0,0.1616,0.432
0,-0.056,-0,0,-0.056,-0,0,-0.056,-0,0,-0.056,-0,0,-0.056,-0,0,-0.056,-0,0.1184,0.184
0.152,0.24,1.7273,0.104,0.168,1.625,0.08,0.128,1.6667,0,0.048,0,0,0.048,0,0,0.048,0,0.1552,0.4416
0.264,0.376,2.3571,0.12,0.208,1.3636,0.096,0.168,1.3333,0,0.072,0,0,0.072,0,0,0.072,0,0.152,0.432
0,-0.072,-0,0,-0.072,-0,0,-0.072,-0,0,-0.072,-0,0,-0.072,-0,0,-0.072,-0,0.0672,0.1712
0.144,0.248,1.3846,0.096,0.176,1.2,0.056,0.104,1.1667,0,0.048,0,0,0.048,0,0,0.048,0,0.1408,0.3632
0.128,0.2,1.7778,0.056,0.096,1.4,0,0.04,0,0,0.04,0,0,0.04,0,0,0.04,0,0.1408,0.3584
0.152,0.256,1.4615,0.096,0.176,1.2,0.072,0.136,1.125,0,0.064,0,0,0.064,0,0,0.064,0,0.1536,0.416
0.28,0.232,-5.8333,0.12,0.072,-2.5,0.08,0.032,-1.6667,0,-0.048,-0,0,-0.048,-0,0,-0.048,-0,-0.488,1.1536
0,0.016,0,0,0.016,0,0,0.016,0,0,0.016,0,0,0.016,0,0,0.016,0,0.1056,0.2448
0.096,0.144,2,0,0.048,0,0,0.048,0,0,0.048,0,0,0.048,0,0,0.048,0,0.1104,0.312
0.112,0.136,4.6667,0.248,0.272,10.333,0.144,0.168,6,0.04,0.064,1.6667,0,0.024,0,0,0.024,0,0.1152,0.264
0.136,0.264,1.0625,0.096,0.184,1.0909,0.048,0.072,2,0,0.024,0,0,0.024,0,0,0.024,0,0.2208,0.4912
0.104,0.24,0.76471,0.056,0.136,0.7,0,0.08,0,0,0.08,0,0,0.08,0,0,0.08,0,0.1632,0.4
0.304,0.256,-6.3333,0.256,0.208,-5.3333,0.16,0.112,-3.3333,0,-0.048,-0,0,-0.048,-0,0,-0.048,-0,-0.1424,0.3136
0.12,0.056,-1.875,0,-0.064,-0,0,-0.064,-0,0,-0.064,-0,0,-0.064,-0,0,-0.064,-0,-0.2624,0.6544
-0.224,-0.208,-14,0,0.016,0,0,0.016,0,0,0.016,0,0,0.016,0,0,0.016,0,0.1488,0.2192
0.112,0.272,0.7,0.064,0.152,0.72727,0,0.088,0,0,0.088,0,0,0.088,0,0,0.088,0,0.2576,0.5392
0.16,0.088,-2.2222,0.096,0.024,-1.3333,0.072,0,-1,0,-0.072,-0,0,-0.072,-0,0,-0.072,-0,-0.3344,0.8272
0.112,0.264,0.73684,0.064,0.176,0.57143,0,0.112,0,0,0.112,0,0,0.112,0,0,0.112,0,0.1376,0.3024
0.168,0.328,1.05,0.104,0.24,0.76471,0.088,0.208,0.73333,0,0.12,0,0,0.12,0,0,0.12,0,0.1936,0.3872
0.16,-0.176,-0.47619,0.104,-0.232,-0.30952,0.072,-0.264,-0.21429,0,-0.336,-0,0,-0.336,-0,0,-0.336,-0,-0.4272,0.8832
0.152,0.28,1.1875,0.112,0.216,1.0769,0.096,0.184,1.0909,0,0.088,0,0,0.088,0,0,0.088,0,0.1392,0.2784
0.128,0.216,1.4545,0.08,0.136,1.4286,0,0.056,0,0,0.056,0,0,0.056,0,0,0.056,0,0.1408,0.3376
0.216,0.232,13.5,0.112,0.128,7,0.08,0.096,5,0,0.016,0,0,0.016,0,0,0.016,0,-0.2816,0.6896
0.128,0.096,-4,0.08,0.048,-2.5,0.048,0.016,-1.5,0,-0.032,-0,0,-0.032,-0,0,-0.032,-0,-0.2992,0.7296
-0.048,-0.008,-1.2,-0.048,-0.032,-3,0,0.016,0,0,0.016,0,0,0.016,0,0,0.016,0,0.0816,0.2192
0.096,0.24,0.66667,0,0.144,0,0,0.144,0,0,0.144,0,0,0.144,0,0,0.144,0,0.152,0.3616
0.352,0.448,3.6667,0.352,0.416,5.5,0,0.064,0,0,0.064,0,0,0.064,0,0,0.064,0,0.104,0.2352
0.112,-0.232,-0.32558,0.064,-0.28,-0.18605,0,-0.344,-0,0,-0.344,-0,0,-0.344,-0,0,-0.344,-0,-0.2736,0.6576
0,-0.216,-0,0,-0.216,-0,0,-0.216,-0,0,-0.216,-0,0,-0.216,-0,0,-0.216,-0,0.0976,0.2416
-0.12,-0.08,-3,0,0.04,0,0,0.04,0,0,0.04,0,0,0.04,0,0,0.04,0,0.136,0.3312
0.248,0.04,-1.1923,0.248,0.04,-1.1923,0.248,0.04,-1.1923,0.408,0.2,-1.9615,0.24,0.032,-1.1538,0.208,0,-1,-0.192,0.512
0.048,0.088,1.2,0,0.04,0,0,0.04,0,0,0.04,0,0,0.04,0,0,0.04,0,0.1264,0.3632
-0.096,-0.056,-2.4,0,0.04,0,0,0.04,0,0,0.04,0,0,0.04,0,0,0.04,0,0.0912,0.2144
0.168,0.208,4.2,0.168,0.184,10.5,0,0.016,0,0,0.016,0,0,0.016,0,0,0.016,0,0.0672,0.1968
0.128,0.032,-1.3333,0.072,-0.024,-0.75,0.048,-0.048,-0.5,0,-0.096,-0,0,-0.096,-0,0,-0.096,-0,-0.3168,0.7856
0.064,0.2,0.47059,0,0.136,0,0,0.136,0,0,0.136,0,0,0.136,0,0,0.136,0,0.1824,0.4112
0.12,0.176,2.1429,0.04,0.064,1.6667,0,0.024,0,0,0.024,0,0,0.024,0,0,0.024,0,0.1152,0.2816
0.096,0.24,0.66667,0.056,0.168,0.5,0,0.112,0,0,0.112,0,0,0.112,0,0,0.112,0,0.224,0.4672
0.208,0.28,2.8889,0.208,0.256,4.3333,0.208,0.248,5.2,0,0.04,0,0,0.04,0,0,0.04,0,0.1424,0.3152
0.104,-0.056,-0.65,0.024,-0.136,-0.15,0,-0.16,-0,0,-0.16,-0,0,-0.16,-0,0,-0.16,-0,-0.3344,0.7888
0,-0.208,-0,0,-0.208,-0,0,-0.208,-0,0,-0.208,-0,0,-0.208,-0,0,-0.208,-0,-0.2576,0.6464
0.192,0.248,3.4286,0.136,0.168,4.25,0.04,0.048,5,0,0.008,0,0,0.008,0,0,0.008,0,0.0912,0.2704
0.416,0.488,5.7778,0.416,0.464,8.6667,0.416,0.456,10.4,0,0.04,0,0,0.04,0,0,0.04,0,0.0752,0.2048
0.36,0.312,-7.5,0.184,0.136,-3.8333,0.152,0.104,-3.1667,0.016,-0.032,-0.33333,0,-0.048,-0,0,-0.048,-0,-0.3696,0.8384
0.2,0.168,-6.25,0.136,0.104,-4.25,0.104,0.072,-3.25,0,-0.032,-0,0,-0.032,-0,0,-0.032,-0,-0.3312,0.6896
0.064,0.096,2,0.064,0.096,2,0.44,0.472,13.75,0.248,0.28,7.75,0.104,0.136,3.25,0.08,0.112,2.5,0.1216,0.3568
0.088,0.128,2.2,0,0.04,0,0,0.04,0,0,0.04,0,0,0.04,0,0,0.04,0,0.1328,0.4176
0.112,0.176,1.75,0.072,0.112,1.8,0.032,0.056,1.3333,0,0.024,0,0,0.024,0,0,0.024,0,0.1152,0.3312
0.12,-0.192,-0.38462,0.08,-0.232,-0.25641,0.048,-0.264,-0.15385,0,-0.312,-0,0,-0.312,-0,0,-0.312,-0,-0.3392,0.8032
-0.08,0,-1,-0.08,-0.024,-1.4286,-0.08,-0.04,-2,0,0.04,0,0,0.04,0,0,0.04,0,0.0944,0.232
0.12,0.16,3,0.072,0.088,4.5,0,0.016,0,0,0.016,0,0,0.016,0,0,0.016,0,0.12,0.432
0.176,-0.208,-0.45833,0.128,-0.256,-0.33333,0.096,-0.288,-0.25,0,-0.384,-0,0,-0.384,-0,0,-0.384,-0,-0.3792,0.8736
0,-0.256,-0,0,-0.256,-0,0,-0.256,-0,0,-0.256,-0,0,-0.256,-0,0,-0.256,-0,0.1312,0.384
0.304,0.4,3.1667,0.152,0.232,1.9,0.112,0.176,1.75,0,0.064,0,0,0.064,0,0,0.064,0,0.128,0.4048
0.064,0.104,1.6,0,0.04,0,0,0.04,0,0,0.04,0,0,0.04,0,0,0.04,0,0.1232,0.3536
0.12,0.208,1.3636,0.088,0.16,1.2222,0.056,0.104,1.1667,0,0.048,0,0,0.048,0,0,0.048,0,0.1264,0.3248
0.144,0.216,2,0.112,0.16,2.3333,0.072,0.104,2.25,0,0.032,0,0,0.032,0,0,0.032,0,0.1184,0.4
0.088,-0.104,-0.45833,0,-0.192,-0,0,-0.192,-0,0,-0.192,-0,0,-0.192,-0,0,-0.192,-0,-0.368,0.8864
0.12,0.16,3,0,0.04,0,0,0.04,0,0,0.04,0,0,0.04,0,0,0.04,0,0.1152,0.4032
0.144,0.176,4.5,0,0.032,0,0,0.032,0,0,0.032,0,0,0.032,0,0,0.032,0,0.0912,0.2816
0.152,0.2,3.1667,0.088,0.112,3.6667,0,0.024,0,0,0.024,0,0,0.024,0,0,0.024,0,0.1088,0.4512
0,-0.152,-0,0,-0.152,-0,0,-0.152,-0,0,-0.152,-0,0,-0.152,-0,0,-0.152,-0,0.0944,0.1856
0.28,-0.128,-0.68627,0.248,-0.16,-0.60784,0.232,-0.176,-0.56863,0.048,-0.36,-0.11765,0,-0.408,-0,0,-0.408,-0,-0.2768,0.7232
0.216,0.288,3,0.128,0.176,2.6667,0.064,0.096,2,0,0.032,0,0,0.032,0,0,0.032,0,0.1024,0.3504
0.128,0.176,2.6667,0.064,0.096,2,0.024,0.032,3,0,0.008,0,0,0.008,0,0,0.008,0,0.0928,0.2384
0.128,0.176,2.6667,0.04,0.064,1.6667,0,0.024,0,0,0.024,0,0,0.024,0,0,0.024,0,0.072,0.2272
0,-0.304,-0,0,-0.304,-0,0,-0.304,-0,0,-0.304,-0,0,-0.304,-0,0,-0.304,-0,-0.312,0.72
0,0.344,0,0,0.344,0,0,0.344,0,0,0.344,0,0,0.344,0,0,0.344,0,0.1056,0.28
0.512,0.56,10.667,0.12,0.168,2.5,0.08,0.128,1.6667,0,0.048,0,0,0.048,0,0,0.048,0,0.0848,0.2528
0.136,0.136,Inf,0.032,0.032,Inf,0,0,NaN,0,0,NaN,0,0,NaN,0,0,NaN,0.0704,0.2432
0.32,0.312,-40,0.12,0.112,-15,0.088,0.08,-11,0,-0.008,-0,0,-0.008,-0,0,-0.008,-0,-0.336,0.7216
0.024,-0.008,-0.75,0.512,0.48,-16,0.32,0.288,-10,0.096,0.064,-3,0.008,-0.024,-0.25,0,-0.032,-0,-0.2272,0.5568
0.304,0.376,4.2222,0.12,0.168,2.5,0.088,0.12,2.75,0,0.032,0,0,0.032,0,0,0.032,0,0.1088,0.432
0.144,0,-1,0.088,-0.056,-0.61111,0.064,-0.08,-0.44444,0,-0.144,-0,0,-0.144,-0,0,-0.144,-0,-0.1952,0.5376
0.128,0.2,1.7778,0.056,0.096,1.4,0,0.04,0,0,0.04,0,0,0.04,0,0,0.04,0,0.1296,0.3312
0.08,0.128,1.6667,0,0.048,0,0,0.048,0,0,0.048,0,0,0.048,0,0,0.048,0,0.16,0.4992
0.112,0.16,2.3333,0.056,0.08,2.3333,0,0.024,0,0,0.024,0,0,0.024,0,0,0.024,0,0.1408,0.56
0.104,0.16,1.8571,0.024,0.04,1.5,0,0.016,0,0,0.016,0,0,0.016,0,0,0.016,0,0.144,0.5536
0.12,0.176,2.1429,0.056,0.08,2.3333,0,0.024,0,0,0.024,0,0,0.024,0,0,0.024,0,0.0864,0.4272
0.152,0.224,2.1111,0.104,0.152,2.1667,0.064,0.088,2.6667,0,0.024,0,0,0.024,0,0,0.024,0,0.1456,0.5888
0.288,0.104,-1.5652,0.104,-0.08,-0.56522,0.072,-0.112,-0.3913,0,-0.184,-0,0,-0.184,-0,0,-0.184,-0,-0.3536,0.8864
0.024,0.04,1.5,0,0.016,0,0,0.016,0,0,0.016,0,0,0.016,0,0,0.016,0,0.1872,0.48
0.16,0.224,2.5,0.104,0.144,2.6,0.056,0.08,2.3333,0,0.024,0,0,0.024,0,0,0.024,0,0.1472,0.624
0.12,0.168,2.5,0.048,0.064,3,0,0.016,0,0,0.016,0,0,0.016,0,0,0.016,0,0.0912,0.4192
0.312,0.024,-1.0833,0.096,-0.192,-0.33333,0.08,-0.208,-0.27778,0.04,-0.248,-0.13889,0,-0.288,-0,0,-0.288,-0,-0.1792,0.4256
0.336,-0.08,-0.80769,0.144,-0.272,-0.34615,0.12,-0.296,-0.28846,0.048,-0.368,-0.11538,0,-0.416,-0,0,-0.416,-0,-0.4,0.992
0.136,0.2,2.125,0.072,0.112,1.8,0.016,0.024,2,0,0.008,0,0,0.008,0,0,0.008,0,0.1232,0.528
0.088,-0.576,-0.13253,0.016,-0.648,-0.024096,0,-0.664,-0,0,-0.664,-0,0,-0.664,-0,0,-0.664,-0,-0.5264,1.1824
0.128,0.184,2.2857,0.056,0.088,1.75,0,0.032,0,0,0.032,0,0,0.032,0,0,0.032,0,0.1568,0.6288
0.096,0.152,1.7143,0.048,0.08,1.5,0,0.032,0,0,0.032,0,0,0.032,0,0,0.032,0,0.0928,0.28
0.144,-0.032,-0.81818,0.096,-0.08,-0.54545,0.04,-0.136,-0.22727,0,-0.176,-0,0,-0.176,-0,0,-0.176,-0,-0.5072,1.1152
0.128,0.192,2,0.072,0.112,1.8,0,0.04,0,0,0.04,0,0,0.04,0,0,0.04,0,0.1216,0.4624
0.208,0.296,2.3636,0.12,0.176,2.1429,0.088,0.128,2.2,0,0.04,0,0,0.04,0,0,0.04,0,0.1104,0.3312
0.136,0.2,2.125,0.064,0.096,2,0,0.032,0,0,0.032,0,0,0.032,0,0,0.032,0,0.1296,0.464
0.192,0.264,2.6667,0.128,0.176,2.6667,0.08,0.104,3.3333,0,0.024,0,0,0.024,0,0,0.024,0,0.1664,0.6176
0,-0.328,-0,0,-0.328,-0,0,-0.328,-0,0,-0.328,-0,0,-0.328,-0,0,-0.328,-0,-0.4944,1.1328
0.088,0.128,2.2,0,0.04,0,0,0.04,0,0,0.04,0,0,0.04,0,0,0.04,0,0.144,0.4784
0.176,0.272,1.8333,0.112,0.176,1.75,0.08,0.128,1.6667,0,0.048,0,0,0.048,0,0,0.048,0,0.1792,0.6192
0.096,0.136,2.4,0,0.04,0,0,0.04,0,0,0.04,0,0,0.04,0,0,0.04,0,0.1024,0.3792
0.12,0.176,2.1429,0.056,0.088,1.75,0,0.032,0,0,0.032,0,0,0.032,0,0,0.032,0,0.1184,0.5104
0,-0.168,-0,0,-0.168,-0,0,-0.168,-0,0,-0.168,-0,0,-0.168,-0,0,-0.168,-0,0.0704,0.272
0.112,-0.48,-0.18919,0.048,-0.544,-0.081081,0,-0.592,-0,0,-0.592,-0,0,-0.592,-0,0,-0.592,-0,-0.3616,0.7168
0,-0.36,-0,0,-0.36,-0,0,-0.36,-0,0,-0.36,-0,0,-0.36,-0,0,-0.36,-0,0.1024,0.3904
0.136,0.184,2.8333,0.072,0.096,3,0,0.024,0,0,0.024,0,0,0.024,0,0,0.024,0,0.1056,0.2832
0,0.056,0,0,0.056,0,0,0.056,0,0,0.056,0,0,0.056,0,0,0.056,0,0.0704,0.2096
0,0.04,0,0,0.04,0,0,0.04,0,0,0.04,0,0,0.04,0,0,0.04,0,0.0672,0.2272
0.104,0.224,0.86667,0.056,0.136,0.7,0,0.08,0,0,0.08,0,0,0.08,0,0,0.08,0,0.1664,0.4512
0.128,0.184,2.2857,0.056,0.088,1.75,0,0.032,0,0,0.032,0,0,0.032,0,0,0.032,0,0.096,0.3488
0,-0.224,-0,0,-0.224,-0,0,-0.224,-0,0,-0.224,-0,0,-0.224,-0,0,-0.224,-0,0.0608,0.1712
0,-0.032,-0,0,-0.032,-0,0,-0.032,-0,0,-0.032,-0,0,-0.032,-0,0,-0.032,-0,0.064,0.2464
0.384,0.52,2.8235,0.224,0.312,2.5455,0.168,0.24,2.3333,0.088,0.12,2.75,0,0.032,0,0,0.032,0,0.096,0.2448
0.08,0.136,1.4286,0,0.056,0,0,0.056,0,0,0.056,0,0,0.056,0,0,0.056,0,0.1584,0.52
0.328,0.128,-1.64,0.176,-0.024,-0.88,0.152,-0.048,-0.76,0.024,-0.176,-0.12,0,-0.2,-0,0,-0.2,-0,-0.3408,0.8064
0.352,0.424,4.8889,0.176,0.232,3.1429,0.152,0.192,3.8,0,0.04,0,0,0.04,0,0,0.04,0,0.1056,0.4272
0.36,0.368,45,0.36,0.368,45,0.36,0.368,45,0.248,0.256,31,0.08,0.088,10,0.048,0.056,6,0.0816,0.4448
-0.2,-0.088,-1.7857,-0.2,-0.12,-2.5,-0.2,-0.152,-4.1667,0,0.048,0,0,0.048,0,0,0.048,0,0.0704,0.2048
0.128,0.048,-1.6,0.128,0.048,-1.6,0.128,0.048,-1.6,0.392,0.312,-4.9,0.272,0.192,-3.4,0.176,0.096,-2.2,-0.2272,0.6624
0.168,0.224,3,0.12,0.152,3.75,0,0.032,0,0,0.032,0,0,0.032,0,0,0.032,0,0.12,0.5184
0.16,-0.288,-0.35714,0.072,-0.376,-0.16071,0,-0.448,-0,0,-0.448,-0,0,-0.448,-0,0,-0.448,-0,-0.4384,1.0448
0,-0.304,-0,0,-0.304,-0,0,-0.304,-0,0,-0.304,-0,0,-0.304,-0,0,-0.304,-0,0.0816,0.2608
0.152,-0.296,-0.33929,0.072,-0.376,-0.16071,0.008,-0.44,-0.017857,0,-0.448,-0,0,-0.448,-0,0,-0.448,-0,-0.5136,1.144
0,0.08,0,0,0.08,0,0,0.08,0,0,0.08,0,0,0.08,0,0,0.08,0,0.1152,0.5248
0.168,0.208,4.2,0.088,0.112,3.6667,0,0.024,0,0,0.024,0,0,0.024,0,0,0.024,0,0.0864,0.376
0.2,0.248,4.1667,0.136,0.16,5.6667,0,0.024,0,0,0.024,0,0,0.024,0,0,0.024,0,0.0864,0.4112
0.2,0.256,3.5714,0.144,0.184,3.6,0.056,0.08,2.3333,0,0.024,0,0,0.024,0,0,0.024,0,0.1104,0.4864
0.256,0.304,5.3333,0.256,0.304,5.3333,0.256,0.304,5.3333,0.408,0.456,8.5,0.168,0.216,3.5,0.104,0.152,2.1667,0.0976,0.3808
0,0.144,0,0,0.144,0,0,0.144,0,0,0.144,0,0,0.144,0,0,0.144,0,0.0816,0.2576
0.136,0.224,1.5455,0.04,0.064,1.6667,0,0.024,0,0,0.024,0,0,0.024,0,0,0.024,0,0.1056,0.2672
0.128,0.16,4,0.136,0.168,4.25,0.088,0.12,2.75,0.032,0.056,1.3333,0,0.024,0,0,0.024,0,0.0848,0.2736
0,0.36,0,0,0.36,0,0,0.36,0,0,0.36,0,0,0.36,0,0,0.36,0,0.1568,0.408
0.112,0.176,1.75,0.072,0.112,1.8,0,0.04,0,0,0.04,0,0,0.04,0,0,0.04,0,0.1216,0.3248
0.264,0.04,-1.1786,0.328,0.104,-1.4643,0.16,-0.064,-0.71429,0,-0.224,-0,0,-0.224,-0,0,-0.224,-0,-0.3264,0.744
0,0.128,0,0,0.128,0,0,0.128,0,0,0.128,0,0,0.128,0,0,0.128,0,0.1216,0.5456
0,-0.2,-0,0,-0.2,-0,0,-0.2,-0,0,-0.2,-0,0,-0.2,-0,0,-0.2,-0,0.0816,0.1792
0.12,-0.04,-0.75,0.072,-0.088,-0.45,0.032,-0.128,-0.2,0,-0.16,-0,0,-0.16,-0,0,-0.16,-0,-0.36,0.7632
0.12,-0.04,-0.75,0.072,-0.088,-0.45,0.032,-0.128,-0.2,0,-0.16,-0,0,-0.16,-0,0,-0.16,-0,-0.36,0.7632
0,0.128,0,0,0.128,0,0,0.128,0,0,0.128,0,0,0.128,0,0,0.128,0,0.1104,0.2544
0.112,-0.168,-0.4,0.056,-0.224,-0.2,0.016,-0.264,-0.057143,0,-0.28,-0,0,-0.28,-0,0,-0.28,-0,-0.5248,1.1744
0,-0.16,-0,0,-0.16,-0,0,-0.16,-0,0,-0.16,-0,0,-0.16,-0,0,-0.16,-0,0.0784,0.2304
0,0,NaN,0,0,NaN,0,0,NaN,0,0,NaN,0,0,NaN,0,0,NaN,0.152,0.3776
0.096,0.16,1.5,0,0.064,0,0,0.064,0,0,0.064,0,0,0.064,0,0,0.064,0,0.1072,0.3968
0,-0.144,-0,0,-0.144,-0,0,-0.144,-0,0,-0.144,-0,0,-0.144,-0,0,-0.144,-0,0.2016,0.2736
0,-0.144,-0,0,-0.144,-0,0,-0.144,-0,0,-0.144,-0,0,-0.144,-0,0,-0.144,-0,0.2016,0.2736
0.104,0.176,1.4444,0.048,0.08,1.5,0,0.032,0,0,0.032,0,0,0.032,0,0,0.032,0,0.1856,0.5568
0.104,0.176,1.4444,0.048,0.08,1.5,0,0.032,0,0,0.032,0,0,0.032,0,0,0.032,0,0.1856,0.5568
0.096,-0.328,-0.22642,0.056,-0.368,-0.13208,0,-0.424,-0,0,-0.424,-0,0,-0.424,-0,0,-0.424,-0,-0.552,1.288
0.12,-0.376,-0.24194,0.072,-0.424,-0.14516,0.048,-0.448,-0.096774,0,-0.496,-0,0,-0.496,-0,0,-0.496,-0,-0.552,1.2768
0.136,0.232,1.4167,0.08,0.144,1.25,0.056,0.096,1.4,0,0.04,0,0,0.04,0,0,0.04,0,0.1952,0.5152
-0.208,-0.008,-1.04,-0.208,-0.008,-1.04,-0.208,-0.008,-1.04,0.048,0.096,1,0,0.048,0,0,0.048,0,0.1632,0.4336
0.128,0.208,1.6,0.072,0.12,1.5,0.04,0.064,1.6667,0,0.024,0,0,0.024,0,0,0.024,0,0.1888,0.5712
0.088,0.16,1.2222,0.032,0.056,1.3333,0,0.024,0,0,0.024,0,0,0.024,0,0,0.024,0,0.192,0.568
0.096,0.176,1.2,0.048,0.088,1.2,0,0.04,0,0,0.04,0,0,0.04,0,0,0.04,0,0.1616,0.4448
